Î¸,SC,BCC,FCC
0.0,2.1499292188074812,1.9592352065463858,1.9263422569806339
0.18018018018018017,1.9813178429960174,1.8737879022020494,2.1093758507454883
0.36036036036036034,1.6980542786318726,2.2580090859415174,2.0166561616722207
0.5405405405405406,2.2450932686924627,2.13634579450925,2.0077319069432766
0.7207207207207207,2.0868781744361344,1.862509212276178,2.218608864272986
0.9009009009009009,2.1247561653010982,2.059744745609275,2.0463812781838393
1.0810810810810811,1.9900525182388624,2.091161487124949,2.002402775801623
1.2612612612612613,1.9120167728710435,1.6399591458437477,1.6504627849528146
1.4414414414414414,2.286625948104548,2.1647076064090007,2.2815335001027774
1.6216216216216217,2.193585969129876,1.8857548119145364,1.8481956054734157
1.8018018018018018,1.7805498278013931,1.970524324039739,2.0496468686522293
1.981981981981982,2.168261682675915,2.347594102816833,2.3806190342993516
2.1621621621621623,2.1082686401253823,1.8281554404613947,2.210506740202574
2.3423423423423424,2.1244394082473823,2.5678759158922113,1.9474796894186561
2.5225225225225225,2.461507098040762,2.3359909670251713,2.012720042294573
2.7027027027027026,1.9036999743546992,2.16602087233909,1.7507002779201217
2.8828828828828827,2.3162536095614263,2.158542772998602,1.7356966856533704
3.0630630630630633,2.341920358901813,2.3322581276769743,2.0769272919351396
3.2432432432432434,2.498131861373453,2.1045615172528187,2.282895906585401
3.4234234234234235,1.893294541677041,2.3669692026117732,2.0088167852291914
3.6036036036036037,2.195698079553046,2.28118102740855,2.430661733425383
3.783783783783784,2.2090296581911444,2.099108635539206,2.1195945097330737
3.963963963963964,2.022057764419114,1.9791890571160802,2.2132415116699096
4.1441441441441444,2.292968816263394,2.221955403568835,2.402530885646062
4.324324324324325,2.502632448649105,2.392096305723564,2.1851726992399985
4.504504504504505,1.9085979512383875,2.3987029488653073,1.8895786227847584
4.684684684684685,2.16779182214157,2.0127159323404236,1.9042087526889926
4.864864864864865,1.8327556226467563,2.2916376701593806,1.783149410590287
5.045045045045045,2.3423869557775845,1.96030980899714,2.041282555683367
5.225225225225225,2.5669952433697336,2.4521390667411676,1.9898586855183171
5.405405405405405,2.526945964019947,2.2491847479150917,2.0231270133677755
5.585585585585586,2.362217979434826,2.2700256742955816,2.0229044034358705
5.7657657657657655,2.448524936444005,2.2893946280363644,2.4633180946577404
5.945945945945946,1.895466685934257,2.1994430206416395,2.530332044672969
6.126126126126127,2.1768751502104666,2.1913106950500825,2.2377017738409557
6.306306306306307,2.421467814051549,2.120862992674585,2.0638784571252193
6.486486486486487,2.29904477198422,2.032050806820475,2.1750314275773466
6.666666666666666,2.3247658088350747,2.067623555211429,1.913096757666722
6.846846846846847,1.9147507345129569,2.3423866436648235,2.121557776450689
7.027027027027027,2.044524580891832,2.2554327839562194,2.2009471685442423
7.207207207207207,2.2551171853263656,2.438905139140739,2.1897498241426643
7.387387387387387,1.678611440428469,1.6887134922918838,2.0686535006425593
7.567567567567568,2.4258878124323866,2.399913482046504,1.8737216413291577
7.747747747747748,2.112901740654471,2.0689860868678336,2.2542205959126855
7.927927927927928,2.0842530607483947,2.1399088981013086,2.426590327805214
8.108108108108107,2.1780881482529915,2.3989933534505794,2.218021360648876
8.288288288288289,1.9387085264755315,2.1082891231006022,2.360489455827588
8.468468468468469,2.066324466796304,2.444858888361624,2.364654624579302
8.64864864864865,2.39755882334732,2.2185183734345695,1.9165771664341562
8.82882882882883,2.1969053111706978,2.1149579731004753,2.117398232132125
9.00900900900901,1.990305354740504,2.410410091916172,2.3992869939604797
9.18918918918919,1.9498238117980509,1.919719193992143,2.26184926284482
9.36936936936937,2.359002780031626,2.4822706142750657,2.0353217483191086
9.54954954954955,2.0220958072699555,2.0472023578120835,1.8343757892158865
9.72972972972973,1.8297283250506697,2.442991885423191,2.3080128683728063
9.90990990990991,1.8905065640208443,2.160125742668572,2.4235161251048933
10.09009009009009,2.271075555308479,2.267911801384154,2.127566967103302
10.27027027027027,2.088866169093444,2.2766639483638427,2.3326796374739747
10.45045045045045,2.3494046669638733,2.0332592036122685,2.19197758315833
10.63063063063063,2.2365410744692973,1.873570939036968,2.2616621323961077
10.81081081081081,2.2798496024429773,2.108926890309577,2.3159812220409406
10.99099099099099,2.451174507383255,2.1884065493149647,2.504746754404662
11.171171171171173,1.8668003786266023,2.5034646120561446,2.474819434835719
11.35135135135135,2.2100005484320335,1.7497541748075953,2.4171090948216425
11.531531531531531,2.570497844270308,2.4269849763312563,2.476026736086066
11.711711711711713,2.2105323539901733,2.11329114642284,1.916987914344218
11.891891891891891,1.8961529865603868,2.172978475866294,2.4025783527747038
12.072072072072073,2.2684871311706325,2.5150688560016903,1.7873201268706942
12.252252252252253,2.2489944815990577,2.533012752608305,2.1398861441120958
12.432432432432432,2.224221032012002,2.0305890791016115,2.374664108898161
12.612612612612613,1.9466500368974193,2.4126742970930604,2.1715118194071787
12.792792792792792,2.3167747708886175,2.611085701545482,2.2549756195391764
12.972972972972974,1.9521474182035379,2.3342565687406447,2.153510339947695
13.153153153153154,2.199745140516946,2.464898430821356,2.718119029777645
13.333333333333332,1.8826265935761888,2.314584743400619,1.4881534899300997
13.513513513513514,2.304360193875923,2.1098350324403916,2.34228859602657
13.693693693693694,2.6590110654949983,2.106593542838212,2.3968571656035578
13.873873873873874,2.5462681354136887,2.5615162849934725,2.504718325655016
14.054054054054054,2.1733891628019704,2.7120517083051685,2.1245280086075273
14.234234234234233,2.3862433785200277,2.2412980477822,2.573554719675093
14.414414414414415,2.463231196788363,2.3670608774220945,2.452181724730335
14.594594594594595,2.3834723321844407,1.957779990654545,1.8522107179472194
14.774774774774775,2.5070019788509863,2.0656564502556427,2.3530389502201627
14.954954954954955,2.122214426400961,2.189229946574179,2.652665057565419
15.135135135135137,2.2664015242658606,2.659891881568123,2.384619417655604
15.315315315315315,2.497942078763558,1.8973491294773948,2.0944199298678376
15.495495495495495,2.2429203493252543,2.205886333566835,2.163896090855757
15.675675675675675,2.4775069144151805,2.1661732622976766,2.1528375997476936
15.855855855855856,2.438259281006894,2.015746454292299,2.1593373190194436
16.036036036036037,2.3506531664095185,2.6384076312980906,2.3090140895126012
16.216216216216214,2.48284317709698,2.3095402911225977,2.2040277245127333
16.396396396396398,2.4469866214244327,2.2755947893649258,2.7188878191176107
16.576576576576578,2.228493589765751,2.6490142543825868,2.3844682297005946
16.756756756756758,2.2481310545164606,2.2265133532714234,2.127154418089119
16.936936936936938,2.1928738244470503,1.9961839352058792,2.5071880407493277
17.117117117117115,1.9741532484400353,1.9157481960346385,2.6874139668766404
17.2972972972973,2.169082949119359,2.289470703496284,2.3433746538677784
17.47747747747748,2.4605947695583255,2.8247062980929534,2.3430742471081456
17.65765765765766,2.949228433599116,2.4720487479196156,1.747535457331234
17.83783783783784,2.469782974299195,2.446494472478532,2.161287887755856
18.01801801801802,2.7322525826562662,2.8432395899350844,2.431874878387976
18.1981981981982,2.4244681017534235,2.389412219640216,2.444423383507122
18.37837837837838,2.210040306331019,2.4134558175173737,2.5677020445491734
18.55855855855856,2.728583533907332,1.7487436544621284,2.1739581928462566
18.73873873873874,2.690152184992696,1.9882161132871725,2.5208272370355425
18.91891891891892,2.49517981193249,2.26662910527253,2.5604523415019367
19.0990990990991,2.350736749639855,2.333224080879153,2.5572702890974295
19.27927927927928,2.4121428196154895,2.43995598111443,2.848133355926375
19.45945945945946,2.3445859608325135,2.7349828393019378,2.7552440311646214
19.63963963963964,2.088352006969703,2.3845600758400263,2.4773396556171736
19.81981981981982,2.4513852591166487,2.433402714669536,2.729064516253176
20.0,2.74225453266463,2.9737449324609133,2.588634047473972
20.18018018018018,2.392758166496755,2.209517390915851,2.3289639786231935
20.36036036036036,2.849592373632527,1.7085630267262422,2.355389171764182
20.54054054054054,2.450350782356549,2.571909702401501,1.6170051022141887
20.72072072072072,2.6527809265063267,2.4914629765847405,2.3702764318271097
20.9009009009009,2.4575796518771678,2.3423945797490537,2.382690575660512
21.08108108108108,2.5967709447124303,2.2859674954873173,2.3220910850512513
21.26126126126126,2.396520023975554,2.816685726580085,2.376083024814432
21.44144144144144,2.290840065686494,2.5808086826150447,2.4491369973602604
21.62162162162162,2.4482343933209116,2.1368452897797137,2.31654832597899
21.8018018018018,2.3466028621096426,2.7514665688324573,2.4098219501558718
21.98198198198198,2.4838597907438897,2.547598193109323,2.5592329598533916
22.16216216216216,2.107786247651122,2.714688283919735,3.015903077238649
22.342342342342345,2.5598274587343317,2.3624469575948637,2.2291632326314113
22.522522522522525,2.32646389327534,1.9977153754003403,2.68074422969403
22.7027027027027,1.975342269732623,2.635534957796268,2.3753482751210435
22.882882882882882,2.3657137700049873,2.6304776099071696,2.6677570908008543
23.063063063063062,2.5624602286892526,3.003290823875155,2.2223942090403144
23.243243243243246,2.465068245117482,2.369688338524649,2.776141398465087
23.423423423423426,2.5087714469693263,2.539891570934256,2.5184529684593455
23.603603603603602,2.709321429002384,2.726779485909815,2.2495809636267365
23.783783783783782,2.5667195416671387,2.2578387444084864,2.6376864698698252
23.963963963963963,1.9878791247944259,2.47136186379829,2.714084054941584
24.144144144144146,2.4911920077787273,2.786744377137368,2.336099527167618
24.324324324324326,1.9230380907642173,2.7048405976909606,2.552308265901407
24.504504504504506,2.497550127032224,2.4415945447718035,2.22743438194677
24.684684684684683,2.5408383399814993,2.545241390136488,2.8376583797954695
24.864864864864863,2.9902778787040605,2.654570241938951,2.8143204801117445
25.045045045045047,2.5895212048955702,2.3533804310465616,2.2357675088508966
25.225225225225227,2.8503418284572777,2.545316303039419,2.8562827836026043
25.405405405405407,2.7772694676106164,2.478200715878457,2.3374148842676723
25.585585585585584,3.0917509440190685,2.9352368777690305,2.5983978173328537
25.765765765765764,3.2409126083393054,2.2196959708181456,3.0799006914756064
25.945945945945947,3.3551700400690954,2.635170287158237,2.2536227203500188
26.126126126126128,4.8436391496086895,2.462808335154327,2.167729236920063
26.306306306306308,6.464301245913286,2.37346234021101,2.4027091707282136
26.486486486486484,10.73882519087795,2.634741497495152,2.2607986136938383
26.666666666666664,12.666830307504142,2.8755054531017135,2.73330229471776
26.846846846846848,7.625340464131592,2.490360339022743,2.0570431438979875
27.027027027027028,4.5253869632415515,1.9408868743296,2.3753226150406426
27.207207207207208,3.4396701588623597,2.688556919679758,2.615499619483784
27.38738738738739,3.068811809473173,2.654596595979527,2.910763532184797
27.567567567567565,2.663589671860672,2.726490523156458,2.8406932247169263
27.74774774774775,2.7965247446849446,2.440647122731563,3.2962415267911696
27.92792792792793,3.1813969436615226,2.6405459278136134,2.484509418191083
28.10810810810811,2.9227684186208145,2.2887795750445066,2.5850018752584507
28.28828828828829,2.429935368420134,2.5934432172724993,2.9203375130287745
28.468468468468465,2.8813572371588894,2.685962692657745,3.01204404171017
28.64864864864865,2.701354829434571,2.2531611621920193,2.7398594789984587
28.82882882882883,2.961488618644738,2.9842899781319443,2.4601281350715496
29.00900900900901,2.5985608828311113,2.9458789114853547,2.7981059375432293
29.18918918918919,2.4812630790190124,2.1116875019196497,2.6216791279604363
29.369369369369366,2.3619497626046684,2.562575115561896,3.2404562184075565
29.54954954954955,3.0563961335299887,2.8011954725444874,2.1808038148404547
29.72972972972973,2.716627649261334,2.555239926672825,2.7686492807978533
29.90990990990991,2.9786103935687507,2.411940502359643,2.30077911967466
30.09009009009009,3.170066861102613,2.86144982627166,2.6485046815156226
30.270270270270274,2.5062484210211213,2.4045426951267492,2.665440511997698
30.45045045045045,3.235381543611428,2.4451308246955348,2.645116345852175
30.63063063063063,2.9241253268384577,3.034097170613275,2.2942331933172184
30.81081081081081,2.7336304459630085,2.306265346402799,2.8516144307574307
30.99099099099099,2.7911128185874707,2.686285619300742,2.9516924404374056
31.171171171171174,2.777831893776615,2.810138883109112,2.571488026429671
31.35135135135135,2.839576541833674,2.811976452576514,2.9077473776241227
31.53153153153153,2.7537725625198495,2.2045579388176586,2.6162110143374906
31.71171171171171,3.143928912502069,2.848490266572901,2.6177528551017666
31.89189189189189,3.178982609569675,2.9641014352374913,2.9634183479939953
32.072072072072075,2.441466177956805,2.648664340747143,2.0506497669398
32.25225225225225,2.327788970815018,2.299328476524883,2.6981902209635353
32.43243243243243,2.5404779536755355,2.879287770242891,2.5472539539510257
32.612612612612615,2.7724519578801674,2.3896978819831585,2.752740769494516
32.792792792792795,2.91714254989291,2.0219378855419334,2.889942573177818
32.972972972972975,2.744619062249019,2.6345392851481306,2.8171305294056497
33.153153153153156,2.807503457902599,2.449441147099199,2.2116216152512376
33.33333333333333,2.992488322788011,2.634642276864965,2.646297385619474
33.513513513513516,2.5690159747049504,3.0867964738817713,2.8200364619369642
33.693693693693696,2.626056845149363,3.0598342361639337,2.4173455920807037
33.873873873873876,2.364335543400253,3.349137771872325,2.727072538347701
34.054054054054056,3.235438493263999,2.5629579064645633,3.1688174142532533
34.23423423423423,2.4852949828549025,2.6865837116168234,2.9938520646600733
34.414414414414416,2.8803630322047997,2.747884786705789,2.7123160646214974
34.5945945945946,2.7564352408967667,2.5451130972723672,2.697205517786053
34.77477477477478,3.050576486518065,2.7359552642669587,2.821884034954914
34.95495495495496,2.325256520696157,2.958071779546429,2.639957920409392
35.13513513513513,3.0160262674118536,3.0096195768925735,2.8332737004767936
35.31531531531532,3.024348020598404,2.730236135377376,2.9396873225095477
35.4954954954955,3.1961313553955786,3.1226480403863093,3.1678192525074804
35.67567567567568,2.7188712974380085,2.9800753793068204,2.8268210327076524
35.85585585585586,3.42873950248677,2.4665361461060784,2.5483818131242346
36.03603603603604,3.0025923466538407,2.887632255631496,2.603205794615061
36.21621621621622,2.8118439994712667,2.854930741628507,2.426729859656541
36.3963963963964,2.6793393080115404,3.315114497354553,2.621742237734894
36.57657657657658,3.133701547085451,3.306563368818593,2.6548009671638924
36.75675675675676,2.6891422872420825,2.7466544859988447,3.008294184877565
36.93693693693694,3.3875821601122857,2.8737495927195225,2.9271643516419146
37.11711711711712,3.49060049564189,2.7214998587972055,3.0018267823068703
37.2972972972973,4.087524701835214,3.3221428231392616,2.5638904498265567
37.47747747747748,5.507888547670889,2.9089690733812827,3.1011589365310277
37.65765765765766,10.406400174003709,2.3850693624204227,2.809967941445174
37.83783783783784,15.566322828911781,2.8282069640796763,3.222683426192512
38.01801801801802,21.878758783893794,2.7938883107386667,2.6355239646510125
38.1981981981982,11.96667884617583,2.98115629736945,3.116348572054016
38.37837837837838,6.797115030758878,2.7529216194998614,3.4120086897135256
38.55855855855856,4.289264759516344,3.2834912329233794,3.245814338967003
38.73873873873874,3.5322099104981537,3.0172456990918683,2.9462859159349413
38.91891891891892,3.2453933965084425,3.285778492397658,2.259686960759309
39.0990990990991,3.025539982163304,3.1448136786106087,2.916621368199253
39.27927927927928,2.8381343758689948,3.5391663262796835,2.976447770579081
39.45945945945946,2.8284258781366565,3.8378830403399258,3.3385417611781714
39.63963963963964,3.139895681094361,3.505217338318178,3.218411370609899
39.81981981981982,3.158787705602771,3.7807085505450044,2.9531238396184545
40.0,2.5798077536626622,4.276340181462992,2.880784363933585
40.18018018018018,2.838498833211013,5.8585990991303,2.879163125342064
40.36036036036036,2.643925348791088,11.954809189605406,2.7189622722889473
40.54054054054054,3.4763370925207617,17.977124793255264,3.444697080018379
40.72072072072072,2.8652155126661993,16.889588375270055,2.69873161264374
40.9009009009009,2.9285660027018805,11.316387127458228,2.8398313545679037
41.08108108108108,1.8852227173819314,5.9114932355556995,2.910941748650047
41.26126126126126,2.9567130710875236,4.58406382120043,2.767506369420324
41.44144144144144,2.587314207827843,4.315184938969185,2.6623754171356753
41.62162162162162,2.9592633423380983,3.079371916224983,3.2382940969085645
41.8018018018018,2.848174411486192,3.3326802728837763,3.1775838944132366
41.98198198198198,3.2928260345928004,3.191452389897441,2.648260103980379
42.16216216216216,2.907995822975348,3.1265962541157344,3.376242784761115
42.34234234234234,3.165351990946365,2.910284839767623,2.2951213941302098
42.52252252252252,2.8554720960751085,3.190159121950391,2.822112324475588
42.7027027027027,3.075356345062158,3.4799544691568203,3.062049819504699
42.88288288288288,2.7901843885046143,2.975195422813027,3.299438946136953
43.06306306306306,2.9274331266938813,2.839616576628303,3.374769242546688
43.24324324324324,2.825453987097135,3.119196269729447,3.5419617041663183
43.42342342342342,2.8432757856712003,2.8726402758373273,3.2156403546221277
43.6036036036036,2.90976413929396,2.9893893009397274,2.8826087982778956
43.78378378378379,2.867467060583376,2.447703308704745,3.037710990166635
43.96396396396396,2.5728761965899243,2.8289810560135495,3.087524522736069
44.14414414414414,3.3708081249370725,2.962270074570074,2.9593653412501326
44.32432432432432,3.3781868060652323,2.5132898110254933,4.580213367346753
44.5045045045045,2.904460379369938,3.2404204047769523,7.061983729108923
44.68468468468469,3.0476659251306706,3.0012103446203002,9.87794016372229
44.86486486486486,3.264173490299255,3.263844883319039,12.83415261923323
45.04504504504505,2.268950875337872,3.2435379620442517,12.127149142838524
45.22522522522522,3.1156744817765634,2.680695751029216,7.158842609010219
45.4054054054054,3.5320115802738608,3.0020026907281507,4.218774922900529
45.58558558558559,2.8122944037372246,3.1394611485058412,3.1223188509134294
45.765765765765764,3.097765447098805,3.0112488550522136,2.819845227601666
45.94594594594595,3.765974352387344,3.231883209983602,3.008178964726788
46.126126126126124,3.7489168905601207,3.0893150939586964,3.6388555332366983
46.306306306306304,4.0378736802477615,3.128994612243612,2.469947660414108
46.48648648648649,7.038403088288092,2.7526375843075717,3.008572173868012
46.666666666666664,9.61476987923609,3.0032268280792476,2.7605825204548413
46.84684684684685,12.315263036730773,3.0080324011862247,3.2860570226818835
47.027027027027025,13.465289999047954,3.269148667999218,3.1022387147056145
47.207207207207205,9.51511295704044,2.7169241579032937,3.1428260036035636
47.38738738738739,4.8839819159937194,2.7133129166356653,2.8477253204763917
47.567567567567565,4.096841593638223,2.752784188746649,3.05662249389017
47.74774774774775,3.2856307267458678,3.3359992296062804,3.2767720481036626
47.927927927927925,3.6993968389468965,2.757727521522183,2.9716808939137764
48.10810810810811,3.4320417681183044,3.3080456603256123,2.55833837635466
48.28828828828829,3.202819176991273,2.8409543669860655,3.201287129114234
48.468468468468465,2.9676317539309993,2.6163497699684974,2.7778746264931202
48.64864864864865,2.4380910165740435,3.3143398600859304,2.9680321312964777
48.828828828828826,3.547110755665915,2.7125359494833035,3.09854114244045
49.00900900900901,3.352846367936837,3.518017240425404,3.4355253274523783
49.18918918918919,2.2904828155657477,3.1147436587183166,3.360287355511775
49.369369369369366,3.312819630664422,3.4888286805121824,2.763846402724837
49.54954954954955,2.999956269047669,2.886689986438153,2.7237908395649706
49.729729729729726,3.277346801069583,3.415536241489731,2.7442226098781255
49.90990990990991,3.0219258772431243,3.1329081969812935,3.3452428009043778
50.090090090090094,2.6144052159074542,2.9627013838892777,3.2748127435436296
50.27027027027027,3.100937599427032,2.9911204860081044,2.7755192054181292
50.450450450450454,3.784482462818022,2.5884310183393286,3.319144785210229
50.63063063063063,3.038727881847513,2.8091265390548967,2.3128880987489104
50.810810810810814,3.638387506393176,2.7335627455544316,3.0553085302277427
50.990990990990994,3.2088295400174474,3.042472518201456,2.56665066806246
51.17117117117117,3.4992242500495756,2.912743388169146,3.1996204451628167
51.351351351351354,2.9533603031448643,2.53756785435244,2.478082854824505
51.53153153153153,2.682603929114215,2.6727801050399633,3.0749936352585467
51.711711711711715,3.627565712575169,2.606856619486587,4.231984499842336
51.891891891891895,3.0536663109857143,2.975538786148385,5.999464333099739
52.07207207207207,2.810361507548647,3.3781769001953563,7.991274838193443
52.252252252252255,3.0966059712139975,2.3745666148520566,10.160491414982285
52.43243243243243,3.5704538941537027,3.1023013325041178,9.686939182296042
52.612612612612615,2.7456801219532254,2.63591481842153,7.220576175873927
52.792792792792795,3.136685216763406,2.91906879420145,4.5615701032630405
52.97297297297297,3.1365159313471906,3.406427223809734,3.640651772126643
53.153153153153156,3.0666064214786317,2.704758495434775,2.903015501303813
53.33333333333333,3.087603038511393,3.4837983651961335,3.4603483215394397
53.513513513513516,2.9896122970850345,2.9105276453301654,3.9677551493664076
53.693693693693696,3.610847282496131,2.88258287730959,3.190521008361634
53.873873873873876,3.8536072455418666,3.3301980604517167,3.214693987143123
54.054054054054056,3.873918802367077,2.9702112573817754,3.042385642651194
54.23423423423423,4.339452661348113,3.0315239084870025,3.1785726758124144
54.414414414414416,6.356149566768822,2.5493564634720545,3.2292445382475736
54.5945945945946,10.189533301727488,2.743847872781601,3.2011113453617117
54.77477477477478,8.210187537868038,3.0821687929930954,3.1800344723297607
54.95495495495496,8.228037833214,2.995759075747148,2.7685123384700545
55.13513513513513,5.765587268486154,2.5570395966906707,3.2912183459460183
55.31531531531532,4.208087054613777,2.746364516737726,2.7233460164815133
55.4954954954955,4.499069936667053,2.4715596326712004,2.738811285617582
55.67567567567568,2.9582974429303963,2.737786944908823,3.426278194427887
55.85585585585586,3.941961712614053,3.189838678133479,2.865258247812853
56.03603603603603,3.0040200830340282,2.653854855454533,2.3458120845712314
56.21621621621622,3.0399027420167233,3.1715275349783036,3.1555906034291286
56.3963963963964,3.670632391551039,2.2769418198510825,2.7536248825729976
56.57657657657658,3.6279787923814757,3.1287692903736124,3.067777954023308
56.75675675675676,4.001598683644,3.7613635998592505,2.7306707600533002
56.93693693693693,4.0033718488312635,3.4102583604654555,2.9239930933709766
57.11711711711712,2.5887142808713466,3.4532214305063507,3.0380770736033003
57.2972972972973,3.1937074380793966,2.8203114292658786,2.8793591257701125
57.47747747747748,3.424334310200659,2.8798705243586227,2.587048102267341
57.65765765765766,3.220214975127838,3.656312493171006,3.2811572019950894
57.83783783783783,2.8378138317998136,3.3488128281912126,3.040626787778851
58.01801801801802,2.9522697348925973,3.7093885110104248,3.795641280001229
58.1981981981982,3.0917790285414153,4.0835350391719105,2.745442360116407
58.37837837837838,2.6503537352901247,6.64088782407642,3.230627008060607
58.55855855855856,3.4611406822572413,9.768311356752664,3.2454914339221053
58.73873873873873,2.50931238702688,10.009636293697195,3.642015921697586
58.91891891891892,3.6303916405495604,9.845923184621475,3.3686628662522766
59.0990990990991,3.2500703149489754,5.270023069964799,2.8387240439269217
59.27927927927928,3.635121454503018,4.549997583867594,3.1689425982262076
59.45945945945946,4.102357910258419,3.9628224139126917,2.7196490061879475
59.63963963963965,3.072251249580346,4.252411986644323,3.6008897088753247
59.81981981981982,3.906008648212994,3.2353145223862207,4.044017512858704
60.0,4.1303304763827535,3.275721864246516,3.0647760700076856
60.18018018018018,3.642030978648296,3.2748685928106362,2.440095751581577
60.36036036036036,3.8636476767579007,3.071306186837029,3.747094784553612
60.54054054054055,3.709943655320946,3.8462890722762006,2.8085051386986253
60.72072072072072,4.373268811239255,3.077621179656222,3.0480285264220512
60.9009009009009,4.564382993351936,2.8160302392222656,2.8982079587116774
61.08108108108108,4.4968586524467264,2.793750508357994,3.599726762168467
61.26126126126126,6.0561962066987745,2.94273143949591,3.2816390111012748
61.44144144144145,11.672432291733179,3.6874923701087288,3.067340240941175
61.62162162162162,22.95866589004216,3.726214344451856,3.278770245610959
61.8018018018018,32.93971716371741,3.319410350987898,2.897796110245397
61.98198198198198,35.88721089720954,3.1211081334928488,2.523625531625278
62.16216216216216,23.352528455016706,2.8541227746563393,3.7244187664328336
62.34234234234235,13.089759414005144,3.114855095694958,3.759667641769604
62.52252252252252,5.97830502652481,3.0561166876548493,2.6720707047906
62.7027027027027,5.5533472988014445,3.123074580525687,3.339602006275885
62.88288288288288,4.648284482625149,3.5620970657512845,2.850167367339235
63.06306306306306,4.604180623321997,3.376316339310538,3.3166427126895823
63.24324324324325,4.24638097748536,3.4725076452457375,2.7647296778699935
63.42342342342342,3.870296318380318,3.5343572165617014,3.5984936733406525
63.6036036036036,3.1326550687503887,3.8357875179678853,3.497466300880497
63.78378378378378,4.123646540115253,3.3161533432354764,3.1469939764869563
63.96396396396396,3.7600136973262686,3.4748860530352284,3.106008752336563
64.14414414414415,3.906956508682551,3.2157427927741242,3.0124245792508084
64.32432432432432,3.4387590211354424,2.915207192321942,3.1947945507086293
64.5045045045045,3.495348733292424,3.5319979214046975,2.9479246895186124
64.68468468468468,3.7010412051341914,3.069846746046023,3.8755231496805798
64.86486486486486,3.618131886099322,3.6844716625758696,3.3968219280576823
65.04504504504504,3.6817726245073197,3.3216847836955794,3.1261361808826957
65.22522522522523,3.781923719304071,3.9257297734009815,2.2260308711734322
65.4054054054054,3.3091920562299637,3.7303441803317696,3.3582850812465517
65.58558558558559,3.6606268613937316,3.057982484846241,3.5151376703726327
65.76576576576576,3.4010472816264268,3.4576377905201165,3.2505164674638225
65.94594594594595,3.729360755161661,3.3894191451903617,3.4534242986684487
66.12612612612612,3.0349473906575906,3.338081329986345,3.1843832616662495
66.30630630630631,3.1815875696114913,3.490148311461583,2.7935790456315175
66.48648648648648,3.330545527429896,3.534792473018478,2.5076754701728876
66.66666666666666,3.830819825775034,3.55602588293912,3.1289339865985304
66.84684684684684,3.764050269827334,3.1864234023010294,3.2160633853196434
67.02702702702703,4.0918504332042955,3.4510682870132534,3.4777842823226806
67.2072072072072,3.4987314574253325,3.353162989658577,3.042354384560914
67.38738738738739,4.498546938554377,3.41970862685775,3.6048624572062713
67.56756756756756,4.966974457029304,3.6001596062994228,2.762437275346732
67.74774774774775,5.282988962140382,3.6075324892360014,3.0974605135103204
67.92792792792793,7.563488470529216,3.525155250223781,3.8046562243581725
68.10810810810811,12.20371407276412,3.022826937453385,3.207836766121003
68.28828828828829,18.248069903050347,2.6038189714270024,3.6153929969782586
68.46846846846846,33.87003090631711,3.2615415312778975,3.369186553938974
68.64864864864865,27.961069181931258,3.2832680347910967,3.584493673222158
68.82882882882883,24.37886230748818,3.5763969617076685,3.3263994984008827
69.009009009009,12.995833939636418,2.9157049737400653,2.5984245067202387
69.1891891891892,7.9224188019898785,3.5393162392881243,3.2994793123047508
69.36936936936937,4.879483637330223,3.3757680511161543,3.478243376468525
69.54954954954955,4.190911630719478,3.1179562851782743,3.249384631881829
69.72972972972973,4.60854088621952,3.2082686341712487,3.0966783610931805
69.90990990990991,4.349657307088393,3.4174572261925955,3.2819739006406645
70.09009009009009,4.762093456161664,3.196629939528389,3.720050467756692
70.27027027027026,3.759405000618567,3.467663611902512,4.473228888769354
70.45045045045045,4.217328047257935,3.463358445429758,3.7598071801151507
70.63063063063063,3.793667116236747,3.6021336121272003,3.3247249196387436
70.8108108108108,3.6124936424211,3.680510386176826,3.3709720256191447
70.990990990991,3.6061227884827534,3.1515576766787663,2.4821490880107895
71.17117117117118,3.3958682176889567,3.5767538391956673,3.7356201873062735
71.35135135135135,3.4680629080528234,3.5138670235363754,2.9980752519114677
71.53153153153153,3.2477804672067707,3.317168190686918,3.5694053742698535
71.71171171171171,2.8849600338155486,3.662149675125934,2.719466824646326
71.89189189189189,3.6801453507823045,3.8380749697135417,3.339660349789583
72.07207207207207,3.8877372839809734,3.435904481050035,3.258274490716845
72.25225225225225,3.145567148872871,3.412601479727362,3.2546059997234504
72.43243243243244,3.041447681174055,3.781398394922607,3.9350147449543105
72.61261261261261,3.619229770035724,4.0547933319906,3.530889888584204
72.7927927927928,3.519423025223693,4.317390688032829,3.3417646032755735
72.97297297297298,4.177074872578782,4.627773406899215,3.262427370561956
73.15315315315316,3.7632657149996147,7.054459156010921,3.2300650265590014
73.33333333333333,3.4909253096085617,10.089503960022737,3.721873291000896
73.51351351351352,3.7144737570132857,16.229220678241493,3.8945285636615554
73.69369369369369,3.2383669661697776,23.329057994803374,3.151573655554691
73.87387387387388,3.4944156496298127,31.324035293874694,3.673896330201419
74.05405405405405,3.710513296383361,27.836641107257616,3.6999113899077334
74.23423423423424,3.119609393239058,18.46103050874486,4.136570618349572
74.41441441441441,3.64550457341895,12.823695026472876,3.2987069825238406
74.5945945945946,3.314078776356069,5.892037891865277,3.6261697078850195
74.77477477477478,3.591244252528006,4.7680082064756295,3.395236926466229
74.95495495495496,2.7648444023922676,4.858190913079224,3.9156365869865626
75.13513513513513,3.125911092281918,4.197026414013155,4.330185658086826
75.31531531531532,2.8843887304323252,4.187813731369824,3.9065442189843047
75.49549549549549,3.581122379667752,4.25214386761052,3.8153463767698192
75.67567567567568,3.0866424846098113,4.324050900507279,4.027565454688241
75.85585585585585,3.1315154552630258,3.457413293724447,3.3387307007621176
76.03603603603604,3.2986899587859324,3.235584423236395,3.959884476628127
76.21621621621621,2.799444177912171,3.7726651482932665,4.837989983303426
76.3963963963964,3.7613762982324968,3.7077772609607806,5.077956124397003
76.57657657657658,4.126420816627769,2.8505983627144262,7.711767390572223
76.75675675675676,3.1825877293755087,3.64816555639975,11.91965292017316
76.93693693693695,3.1644818140648385,3.6739951895757734,15.034293068490394
77.11711711711712,3.123025775817945,3.4629577542004517,15.120888151614649
77.29729729729729,3.7372285001040986,3.443345982622448,13.600092397205705
77.47747747747748,3.7314204022576565,3.8780754007780858,10.567268071070844
77.65765765765765,3.847203265184731,3.2192218480633907,6.9358585133516595
77.83783783783784,3.8992756339626906,3.3352362734195378,5.1988369427867
78.01801801801801,3.5667814747267603,3.7888053439927654,4.535211844246144
78.1981981981982,3.1231290273988273,3.5390411682310257,4.493996997653721
78.37837837837839,3.4436332757689168,2.6198849185466186,3.591128485902616
78.55855855855856,3.8699737608941813,3.5456162143417513,4.920014760485404
78.73873873873875,3.8473189141410864,3.3519898173582665,2.9239429550059537
78.91891891891892,3.511548872438255,3.3274424185666014,4.061593259741681
79.09909909909909,4.3572394575478555,3.7125584189447016,3.5183097071173544
79.27927927927928,4.165582777526777,3.500928988489387,3.738762105784259
79.45945945945945,3.873431123947478,3.4957274620122263,3.3319122215656645
79.63963963963964,4.158960557449383,3.226899013652396,3.835457903810232
79.81981981981981,4.401866744265898,3.9195551757487386,4.042335806724082
80.0,3.66966784004454,3.73055332358147,3.8160502242561662
80.18018018018019,3.660041389755697,3.577863340310087,4.211544039126525
80.36036036036036,5.095632173438039,2.9448133951308484,3.778905459198532
80.54054054054055,5.260754810095177,3.4481654544524316,3.4817552175533266
80.72072072072072,10.45947849095388,3.7986927398313948,3.584715389747909
80.9009009009009,15.391503164940495,3.8514009528502786,3.4546463456470726
81.08108108108108,15.097913471936833,3.9877110621000402,3.4999500168737177
81.26126126126125,13.0545733430149,3.2268438363495413,4.25926929804966
81.44144144144144,11.709950863804615,3.5278583093435287,3.177031430264643
81.62162162162161,9.112304706485025,3.469838046105532,3.1500085046402857
81.8018018018018,5.892854680574206,4.56818891522073,3.2797457095855096
81.98198198198199,5.51111447524124,3.6976684100426827,3.1436082290107557
82.16216216216216,3.857789447660967,3.3971365089347456,3.6151446587337137
82.34234234234235,4.2781823174505105,4.135816177249013,3.0584555128514723
82.52252252252252,3.7557213037799,3.373105756718503,3.7604125265836017
82.70270270270271,3.4656083472996198,3.780225367357551,4.093494615664103
82.88288288288288,4.156310869536708,3.623701388839631,2.868500954451609
83.06306306306305,3.574391205831143,3.2653690996872022,3.378836606077974
83.24324324324324,4.05663661456608,3.8644481285835335,3.4710841462491935
83.42342342342342,3.943378265823614,3.779270688255106,3.701954669533429
83.6036036036036,3.7963735513252685,2.8843347141078692,3.4862510297193725
83.78378378378379,4.028657533437249,3.7658232725864553,3.530235031869742
83.96396396396396,3.5558091422530893,3.471253694264632,3.317359804052348
84.14414414414415,4.596349538189292,3.7248401091668573,3.5243502156262783
84.32432432432432,3.957482905137608,3.917174308786959,3.007312919484449
84.50450450450451,3.853118780909478,3.4208980959803235,3.7678735392048974
84.68468468468468,3.94516041618171,3.1047268368390712,3.5439469807087165
84.86486486486486,4.532609819833206,3.8327462843449887,3.102676886399419
85.04504504504504,4.290956250690214,3.2651716257321404,3.8125352184911128
85.22522522522522,4.779178134956276,2.817448325557022,3.4098960212409564
85.4054054054054,4.1797264479357255,3.8984795098090044,3.097043198985648
85.58558558558559,3.4687491755859132,3.272585505104692,3.499557369060219
85.76576576576576,4.574281709317791,3.831477687844533,3.419403248434098
85.94594594594595,4.199871243425995,3.0624592435046707,4.641942879874107
86.12612612612612,4.722252744816494,3.6655818904250284,4.729825545765547
86.30630630630631,5.141917821066242,3.9567599248907612,3.828907606063039
86.48648648648648,6.736978325443202,3.8439306512382028,3.4686012256247967
86.66666666666666,9.863927442593967,4.220039488753647,3.7035441185127573
86.84684684684684,18.01791324577092,5.184009059501535,4.0930320593420095
87.02702702702702,26.117329480059688,5.140696536052988,3.8930719110458174
87.2072072072072,31.324884798772743,4.652718670269454,3.1432595720293106
87.38738738738739,32.44575852583789,7.843152113244331,3.2569274056255906
87.56756756756758,23.986936766676788,13.28070312248817,4.034443267408962
87.74774774774775,10.363760496455368,17.141035941468537,4.078772720603555
87.92792792792793,8.305697103205242,15.988695771031729,3.875563205164444
88.10810810810811,6.376153681572303,14.307153639395944,3.6773091927522747
88.28828828828829,5.864511723224441,8.402532802837388,3.192881160347779
88.46846846846847,4.363691528363067,7.4193889298299975,3.594793417153652
88.64864864864865,4.743755308628456,5.334486797944964,3.995864595983656
88.82882882882882,3.9325227949988704,4.286262991397874,3.721697073546933
89.009009009009,4.436954276194114,4.479948715161577,3.6455355266952387
89.1891891891892,4.751916422954927,4.162393193966881,3.5793659858182014
89.36936936936938,4.201325465193668,3.6678350007419604,4.151044304868858
89.54954954954955,3.878108606792736,3.61638936925843,3.497798988953208
89.72972972972973,3.8405275068272844,3.257692132871938,3.416034489628591
89.90990990990991,4.212457593109583,3.342014419203574,3.6379516883193705
90.0900900900901,4.2392113763633725,3.7383682356347476,3.7811248246793343
90.27027027027027,3.650603492120217,4.077474980690864,3.343759622829686
90.45045045045045,3.695519480629022,3.4941707709186534,3.8460349318435547
90.63063063063062,4.1256025637742555,3.5630114655947525,3.7911920636911525
90.8108108108108,3.9668258040770006,3.8961746195022817,3.8849096403322756
90.990990990991,4.6405028548576635,3.771447739643458,3.5748881041510927
91.17117117117118,4.447060859638609,3.8601025758238436,3.701002625655461
91.35135135135135,4.260936325563285,3.64945674136566,4.492118551698491
91.53153153153153,4.342577314686451,3.8731348178431975,3.461958597025915
91.7117117117117,4.4942757055458795,3.6820168162706075,4.093809385990428
91.8918918918919,4.952507142500094,4.07703160053289,4.408398721773721
92.07207207207207,4.170796032140179,3.832671272213859,4.054059660661812
92.25225225225225,6.169365489848627,3.9370481258295578,4.219789577655102
92.43243243243242,5.64355644608581,3.86689216177235,4.161019717036893
92.61261261261261,7.880122333545334,3.24560025208655,5.254241727676065
92.7927927927928,10.530409589448624,3.1965543480395677,4.028089957068885
92.97297297297298,17.817924025525876,4.317253776600665,6.442874787873135
93.15315315315316,23.432410868045128,3.784488837834301,6.5229052780162355
93.33333333333333,28.600618516946284,4.1308202128597875,12.185724147282196
93.5135135135135,25.483730516146167,4.051985118846542,18.00526120810163
93.6936936936937,15.547003620536705,4.212887070877549,25.756851327790617
93.87387387387388,8.574766121509471,3.634493468361244,33.2494231081172
94.05405405405405,7.559093063358633,3.2780053557563535,23.64625385359028
94.23423423423422,5.554209920653427,3.176853365093174,18.949529769045892
94.41441441441441,5.212382239648641,3.3466441540161704,10.419408668164587
94.5945945945946,5.388530914692751,4.193385574945589,7.385084208578384
94.77477477477478,4.324998118744374,3.802048827981628,5.7486999672650905
94.95495495495496,4.28815434542958,4.001131280809299,4.185638994338106
95.13513513513513,3.964013744943202,3.551186178835538,4.108301399977054
95.3153153153153,3.7608289064729634,3.9861794485287927,4.865201355473133
95.4954954954955,3.4604179387066885,4.523991357607005,4.147087784161049
95.67567567567568,4.791577544951293,4.003455814620261,4.731219781023
95.85585585585585,3.7886172072511703,3.566571389848245,4.2779371261313
96.03603603603602,3.7162841870811776,4.158778127415313,4.193175739017847
96.21621621621622,4.230818590505731,3.771064715772614,3.744519282109948
96.3963963963964,3.5012899374901996,3.6098650145467164,3.7971357794970433
96.57657657657658,4.397114449694096,3.485031816080054,4.016590368328456
96.75675675675676,3.453660054055724,3.7574072556825437,3.691314254235637
96.93693693693693,4.014621673741828,3.14799758415337,3.7904195952341344
97.11711711711713,3.8815542014666278,3.687790767366375,3.8236018969368093
97.2972972972973,4.29179105609886,3.5043258417263115,3.6666529542889057
97.47747747747748,4.551688092594616,3.3564092125836633,4.5002074725680234
97.65765765765765,4.692624813855327,3.541722746396143,4.127612690161639
97.83783783783782,3.70465703613047,4.444939277826107,3.7623863954061743
98.01801801801803,4.723342556555646,3.624120282727259,4.0236243971276435
98.1981981981982,4.8947031649627375,3.479347393731263,4.5381652764522675
98.37837837837839,5.360366351691858,4.036977819299286,4.008636659634471
98.55855855855856,5.666638781032273,3.4390478255575947,3.7763616962130713
98.73873873873873,6.796324634888173,4.450898813286354,4.433879634159279
98.91891891891893,11.93436930702378,3.9278942207569214,7.5089606170187935
99.0990990990991,18.00992029152118,4.016014950428744,8.2753738093963
99.27927927927928,21.286909508195993,4.469462865072359,10.814050025094216
99.45945945945945,32.114906031116014,3.881071747069701,11.239727830781128
99.63963963963963,21.48220324130322,3.604201401805108,9.89639239005382
99.81981981981983,15.617256984354842,4.094343705797701,9.689465657616502
100.0,9.46116077881934,4.055805407745688,6.50200972144301
100.18018018018019,6.6419424786595105,4.812834845476161,5.698696298149971
100.36036036036036,5.15372114967274,4.4289392003950505,4.512523872064617
100.54054054054053,5.153271782656182,4.595552087641688,4.431799089540981
100.72072072072073,4.915146831207676,5.10565663142272,3.985360605452784
100.90090090090091,3.933733283264333,6.487581853430061,4.450723316660385
101.08108108108108,4.640759729950116,8.676745664206061,4.39409317822815
101.26126126126125,4.662747934770361,13.897771869171164,3.243676278526403
101.44144144144143,4.212969077450767,16.58917215485769,4.195197314362726
101.62162162162163,4.127974863541657,25.968761824436715,4.474332874358923
101.8018018018018,3.6826462021083763,26.954939718759395,3.240881569888346
101.98198198198199,4.221096943600916,20.07823608498814,4.1461331338106895
102.16216216216216,4.118513462732823,18.585989566688227,3.538849756103216
102.34234234234233,4.285769039994076,9.647576160383762,3.863462026596025
102.52252252252254,3.8975296397149988,8.15408880566674,3.8050304937109125
102.70270270270271,4.3281496624520255,6.4120628208328405,3.904445932140213
102.88288288288288,4.576251284975074,5.7282307282665315,3.948516770496398
103.06306306306305,4.384031666637159,4.646983329616936,4.315782677231702
103.24324324324323,4.0614326449880975,4.9222471134901085,4.44338036986182
103.42342342342343,3.734916142724289,4.114628519908521,3.815942943017284
103.6036036036036,3.1962424784337706,4.085450130060166,2.928346640167133
103.78378378378379,4.9407224451646545,3.855448175577813,3.5389337232113447
103.96396396396396,3.9072366966465846,4.245744576889487,3.4630729085668848
104.14414414414414,3.6086511186975887,3.999471274063043,4.510498303204637
104.32432432432434,3.808503765646654,3.9453080001832856,3.7104275834791087
104.50450450450451,4.352155017959732,4.1559181896888955,4.660856270399507
104.68468468468468,4.416483660298336,4.289876902517334,2.861641355910197
104.86486486486486,5.168397865453662,3.764510677148437,4.046924562926791
105.04504504504503,6.007785116152356,3.5603775955939887,3.7723393469436157
105.22522522522523,8.832621214474477,4.053683350827177,3.707421218198462
105.4054054054054,8.745603855397139,4.2556582824185885,4.740080032949799
105.58558558558559,10.086365679918881,3.3297012500651437,3.898616185949444
105.76576576576576,10.316089310161122,4.196542265694702,3.765882398955467
105.94594594594594,10.08365036494421,3.886270274083983,3.7349039955978114
106.12612612612614,6.420102874851592,3.6834962199369885,3.5070463336166866
106.30630630630631,5.737731978899128,4.181751072587888,3.71124926659565
106.48648648648648,5.187536687660072,4.200963717889436,4.085776451431924
106.66666666666666,3.664982407532522,3.9901693156253155,3.6633014242591804
106.84684684684683,4.82798331986339,3.4427727082769084,3.9683762792577304
107.02702702702703,4.615473414615973,3.96314935696819,3.625523122903778
107.2072072072072,4.765222759059133,4.047488401178133,3.6662999833193917
107.38738738738739,4.221231024643392,3.750851568554051,3.1639920640784625
107.56756756756756,4.508276918468607,3.467279192180814,3.4369370887956774
107.74774774774775,4.555085017394827,3.031504084824492,3.792252491780719
107.92792792792794,3.7758633471253233,3.783126063186933,5.011921080042688
108.10810810810811,4.6884947971589295,4.077906406582736,3.1680000860552524
108.28828828828829,3.864690097736606,4.265637072558679,3.4724634163417996
108.46846846846846,4.330579216659242,3.573931949880883,4.224489892936552
108.64864864864866,3.9753287247322544,3.534224848552197,4.2847852476098485
108.82882882882883,4.549100104964243,4.570583607633595,3.914536629850322
109.009009009009,3.6654352998378066,3.6416072551498315,3.2921954001674423
109.1891891891892,4.9834873565413975,3.736146147501392,4.429479373479317
109.36936936936937,4.162267982213458,3.722391327030795,4.141433327848485
109.54954954954955,4.1580564613101245,3.8084231744290027,3.903962583050349
109.72972972972974,4.079709392920284,4.0280865943008095,3.652151851220233
109.90990990990991,5.088967466175454,4.343103205396949,4.328599333526424
110.09009009009009,4.681802314483672,3.3109573456809955,3.2501946829639943
110.27027027027026,4.731980598229109,4.3951261853928525,4.173741325983955
110.45045045045046,4.365589178053953,4.241308812198657,3.8160819427326214
110.63063063063063,5.350858058896564,4.528840737566363,3.563495645752156
110.8108108108108,5.663057410189284,3.924283161330033,4.180700783676853
110.990990990991,5.53535034900691,3.7424595739312374,3.4872205666754033
111.17117117117117,7.442035734307187,3.6545658276777075,3.931234848841436
111.35135135135135,9.310002663417684,3.7033415224928583,3.8215919646253886
111.53153153153154,14.649359633794546,3.4892690718221124,3.419808411152555
111.71171171171171,13.423186254433933,3.651410484068546,3.475628260461304
111.89189189189189,20.10812465934265,3.5394540070517233,3.872532305770258
112.07207207207206,23.61455113235119,4.491669068364468,3.9754298020020418
112.25225225225226,21.167848477944386,3.844300133251198,4.008603716937538
112.43243243243244,16.90937266797286,4.204132454237359,4.142747870484721
112.61261261261261,10.913866545818372,4.086730296825575,3.7364719557255883
112.7927927927928,7.217714026889528,3.9780083071090475,3.516189989365124
112.97297297297297,5.650315274740735,3.1773486041499077,3.823224364070709
113.15315315315316,5.299257003996024,4.074124224392344,3.6125176585690717
113.33333333333334,5.795654180440472,4.7461534433650705,3.320149601326048
113.51351351351352,5.14217038064098,4.224468683706592,3.790246824613444
113.69369369369369,4.772812309782959,3.220743747612634,3.9706847092900737
113.87387387387386,4.818735463622258,3.248277371025189,3.6848610051776873
114.05405405405406,5.006974005306308,4.748777781495978,4.156809598571487
114.23423423423424,4.487162122996896,4.332604583388452,3.404748409169257
114.41441441441441,4.6105666802379295,3.595409892658606,3.4363518166544673
114.5945945945946,5.465862231381818,4.186123629346011,3.8325498449150572
114.77477477477477,4.76036622035628,3.9255480489918226,4.4475585378672235
114.95495495495496,3.942359469517071,4.522938037081397,3.741874202691913
115.13513513513514,4.878583995920698,3.696432691667854,3.751416437677804
115.31531531531532,4.800958965393102,4.2233837568514145,3.47675230610639
115.49549549549549,3.729818133280504,4.588113114893398,4.2135649560749435
115.67567567567566,4.903587987335216,5.253568793754995,3.578777700646524
115.85585585585586,4.35080610147054,7.024271206089055,4.01763939808566
116.03603603603604,4.734184588683449,7.0507494291393895,4.237455202917412
116.21621621621621,4.609089312632309,9.992768107939563,4.243954204737981
116.3963963963964,4.624912840571386,8.818919237918912,3.9997817216938154
116.57657657657657,5.381662009623521,9.153396328593953,3.8365774325745368
116.75675675675676,5.113382437361181,9.916101795356656,3.652005677625554
116.93693693693695,5.506492766596203,6.773492650458448,3.247306407599178
117.11711711711712,4.754844638468953,5.51217582160589,3.9977430572915975
117.29729729729729,6.199556048823033,4.4098620037087635,4.043120865925924
117.47747747747746,7.038404122466905,4.547446680813488,3.857987123762639
117.65765765765767,7.276003522374268,4.969574722351443,3.6895699149055616
117.83783783783784,9.299783935885689,4.810370156032166,4.110517514164727
118.01801801801801,15.99202911540525,4.594248815859394,3.350609331206772
118.1981981981982,21.564253034260652,3.761340175515183,3.3453893102691317
118.37837837837839,34.53133929975948,4.840616427604488,3.873731919427506
118.55855855855856,32.63201111334718,4.457655079800821,3.060407194103408
118.73873873873875,41.31927172597131,4.132874811453619,3.135773579787231
118.91891891891892,36.08839221684992,3.8638320528795203,3.003666254626613
119.09909909909909,25.878507925126353,3.867679307514322,3.9993475951908213
119.2792792792793,22.375135676301195,3.9258258561787223,4.233337762332891
119.45945945945947,15.092963386235846,3.966737879840392,4.062605370232125
119.63963963963964,10.934213668451674,4.200139665404065,3.7602387308750473
119.81981981981981,7.428214704282282,3.8430036120952384,4.117910708491728
120.0,7.183256240593701,4.385226666238516,4.250521678208268
120.18018018018019,5.155609306992457,3.7374313185102572,4.429720428535799
120.36036036036036,5.422287796728201,3.713317004134002,3.8719911303248975
120.54054054054055,4.859342254338128,3.873046746674918,4.475361483414248
120.72072072072072,5.020926863754161,3.9123254521687665,3.858235871421262
120.9009009009009,5.112260260322132,3.1284657763764847,3.37386662465901
121.0810810810811,5.007865386242957,4.12509830138508,4.607772123745652
121.26126126126127,4.927493682413632,5.181849376401408,4.212202396981143
121.44144144144144,3.924706806541646,4.177338230256923,4.012834996095346
121.62162162162161,4.302000992841667,4.119824325233061,4.00634433265833
121.8018018018018,3.9253528703741964,3.7145958972677575,4.845208939271287
121.98198198198199,4.18667455769665,4.173639954048764,4.309618886690192
122.16216216216216,4.444810277856304,3.6976432206061047,4.015071989091836
122.34234234234235,4.49889626818943,3.5744576058394744,3.6089603256808114
122.52252252252252,4.7988257289638225,3.4092814201487833,4.412455576423019
122.7027027027027,4.634822386831842,3.8021518270614516,4.891704437007502
122.8828828828829,3.6808431834311826,4.2036395467838945,5.261577841158364
123.06306306306307,4.135201327387669,3.918842591949812,5.707051939688187
123.24324324324324,3.972396418041489,4.121723746532945,5.5122675081612975
123.42342342342342,4.328669385229743,3.932090052316102,8.195253886570033
123.6036036036036,3.9763553818868296,4.46372429469679,9.234233567689678
123.78378378378379,3.9869937787990697,3.239610058333542,7.7341365371425415
123.96396396396396,4.13559691516679,4.132496265070436,5.538303906929792
124.14414414414415,3.8735696909094446,3.634235822427315,4.889124148979426
124.32432432432432,4.516692079910366,3.8922965095897673,4.160245488830659
124.5045045045045,3.755132944059501,4.123915098285862,5.051442040792786
124.6846846846847,4.685308637082029,4.4307403103511,4.5001569440569895
124.86486486486487,4.267185917315206,4.31372701239069,4.417140600431319
125.04504504504504,4.328590596472874,3.8899779851705047,3.602537402892339
125.22522522522522,3.946013067848575,4.154590674569435,3.886082410013757
125.4054054054054,4.360444483315792,3.6447844166404093,4.907981732701655
125.58558558558559,4.328101408408035,4.1452679475008,3.926641051742941
125.76576576576576,4.18198924285506,3.9835837394317,3.537698143750232
125.94594594594595,5.106368658062383,3.9220374987044484,3.8102363823949514
126.12612612612612,4.654399103957191,3.76448692531246,4.054184643901463
126.3063063063063,3.859947525169259,4.46200896890567,4.11072243903214
126.4864864864865,4.529138232965721,4.965177554478732,4.054551643078645
126.66666666666667,4.251657272076759,3.119715034508968,4.687641030918294
126.84684684684684,4.255207768449308,4.486523958967079,4.441472851113793
127.02702702702702,4.433909824939562,4.208073670317801,3.948365468602377
127.2072072072072,3.7052479004162313,4.304830269771843,3.928236817029562
127.38738738738739,4.216154690324342,4.305872593336461,4.074602434204612
127.56756756756756,3.5441556362137825,4.758460030358604,4.1695567299734195
127.74774774774775,3.363465933676666,4.152574843327534,4.8498477226067545
127.92792792792793,4.17893696464051,4.063364120928859,3.9438725871191993
128.1081081081081,4.32332311442848,3.8762380435420494,3.527715429125884
128.2882882882883,3.069229913520829,3.5143504835448125,4.57741608061627
128.46846846846847,3.975625164527097,4.247159622935007,3.7730470191768104
128.64864864864865,4.006319695122643,3.966009126913038,4.162046659682571
128.82882882882882,4.406633987211675,4.2306418460582185,3.760521518381066
129.009009009009,3.7504272256128193,3.728995227606727,3.613210582512184
129.1891891891892,4.183317964566377,4.585403771271149,3.3126509879695147
129.36936936936937,4.626000807026679,4.034982613637667,4.122895274143457
129.54954954954954,4.0583219753039135,4.675451461048539,3.7859650317569136
129.7297297297297,3.819733134485644,4.687211412183688,3.009485174628071
129.9099099099099,4.1959859207643735,3.9175025697869468,3.853576148277314
130.0900900900901,3.6502552223336235,4.587284136594971,2.4948883917188005
130.27027027027026,3.9855545149211755,4.033749715292869,4.152180106475073
130.45045045045046,3.8101377224052024,5.070447957168902,3.9593843392126566
130.63063063063063,3.387649715902652,4.337246253423953,4.186320153772801
130.8108108108108,4.598562412441565,4.4991244591826005,4.6663448981344775
130.990990990991,3.937198276634051,4.019969699216553,3.786966975777439
131.17117117117118,4.1235897752673205,5.127652031515669,4.020964453660415
131.35135135135135,4.28430332806086,5.591628129200097,3.9571405657667915
131.53153153153153,4.124839234085533,5.980088072293892,3.3478188712046144
131.71171171171173,3.5648787558964607,5.587817087263171,4.489953868214139
131.8918918918919,4.6165838429915285,5.483059827256219,4.257393095597798
132.07207207207207,4.665389193756349,7.364449066718338,3.5996944825328865
132.25225225225225,4.858514740159728,10.240998834287803,4.073061932066528
132.43243243243242,4.395442654109751,13.39851988810286,4.4087258333457955
132.61261261261262,4.548538298749539,17.81685622928977,4.480217521660358
132.7927927927928,4.362589847668012,20.048491502983158,4.636809805089417
132.97297297297297,4.626397364721122,29.07107362718676,3.3324572422754253
133.15315315315314,5.58202778676849,31.92745092762049,4.30373026488948
133.33333333333331,6.262313972105286,32.97022620353347,4.304564232016024
133.51351351351352,8.033988906620188,32.258188588176694,4.234432689396681
133.6936936936937,8.03379647509104,24.335061912929902,4.109982839829048
133.87387387387386,6.8808005371138865,22.59128296647791,4.105582545092696
134.05405405405406,7.388799277909584,17.816848078251383,4.326689009910191
134.23423423423424,5.823174109709557,12.02325727705272,4.143497544230434
134.4144144144144,6.232993921255771,10.586197802949236,4.098856369477418
134.5945945945946,5.128232058001124,7.157096576964806,4.307261385231316
134.77477477477478,3.7255610510731225,6.708988543462218,3.3068485543440658
134.95495495495496,4.216721331890899,5.342629497302537,4.310478216788271
135.13513513513513,4.492554731357172,7.152755061726557,4.387694219960521
135.31531531531533,4.034543977992121,5.567571477942484,4.079681428256355
135.4954954954955,4.381950606056105,4.360010613710401,3.5744680860280877
135.67567567567568,4.212011759233868,4.891078522447524,4.035002047889348
135.85585585585585,4.367720652869128,5.592780839532942,4.173656726648049
136.03603603603602,4.006705614674582,5.025618454116788,3.6243480205050718
136.21621621621622,4.043602794498722,5.017067124414909,3.2633225431818054
136.3963963963964,4.323635040399149,3.796216849237944,3.842382169732146
136.57657657657657,4.793121865002601,4.804887487617475,3.467503906515749
136.75675675675674,4.668308759935413,4.564326007814069,4.103395435529858
136.93693693693692,5.062546711262482,4.747461588912295,3.9923629176105773
137.11711711711712,4.4862036722333345,3.820074697797916,2.922862713825624
137.2972972972973,4.509635135095466,4.1211368780038535,3.910741117593586
137.47747747747746,4.04911431958979,3.8233994977680297,3.4415486014109793
137.65765765765767,4.7531237918776,4.810525847257079,3.3012113888471113
137.83783783783784,4.568616745939174,3.5201243192571825,3.98314298223688
138.018018018018,5.2567607555390925,3.5057251248016286,4.0521704296517
138.1981981981982,4.284969228444747,4.0851812487462675,3.9667238194122207
138.3783783783784,3.3267514796461795,3.894836547857497,5.411257980932979
138.55855855855856,5.437167863693392,4.0065996817377,4.183657928688883
138.73873873873873,3.8883494064936066,3.89856192321392,3.4017790187846053
138.91891891891893,4.492166800663171,4.911613200930596,3.9390824220010825
139.0990990990991,4.90982746600905,4.722450389588712,3.464063501244696
139.27927927927928,4.063985696818896,4.461160894798532,3.8527545910814642
139.45945945945945,4.592297137498909,4.504943021494415,3.9003912712082878
139.63963963963963,4.8437736808929515,4.476142245348545,4.212527558364613
139.81981981981983,4.513564414462059,4.7432019276777435,3.6892755656727183
140.0,6.034743842508677,4.456561841255167,3.9264660148401385
140.18018018018017,4.406706528251054,4.007308603475033,4.0777872842474645
140.36036036036035,5.569430541067564,4.314272718470017,4.2550689374353245
140.54054054054052,4.825779578605974,4.1042576214962585,4.743373769785853
140.72072072072072,4.969166126887972,4.175856206445482,4.644431216375511
140.9009009009009,4.903308270871651,3.416551466977746,4.429240059938093
141.08108108108107,5.230212094116539,4.704913396233748,4.588505020284494
141.26126126126127,6.544785833588429,4.326845186932447,3.975755208448615
141.44144144144144,6.584377970466315,4.591476311424253,4.029065951078057
141.6216216216216,7.852371287690182,3.905265520559646,3.6270087353585523
141.80180180180182,11.721970969917482,4.206896370057856,4.718228949095864
141.981981981982,12.783331537223523,4.308250318361999,3.485149836959492
142.16216216216216,17.293077212754103,3.8903071981929416,4.28713597546123
142.34234234234236,21.655404312685,4.856987583717194,5.1405608208260976
142.52252252252254,25.347838805946832,3.7488612008280304,4.3163272661196554
142.7027027027027,28.599253406270186,4.301012880468612,4.02388020066532
142.88288288288288,28.468752620877293,4.11470709624608,4.1441811988947
143.06306306306305,25.75217954688846,4.655447519546788,3.9966988870770175
143.24324324324326,27.486733293526743,4.36197195795829,3.5030457307532266
143.42342342342343,24.872684299224762,4.83253149381884,3.976450556200672
143.6036036036036,16.801323947110937,4.4334789334538,4.308106862898846
143.78378378378378,15.859886895934094,3.9773372991282008,4.589883524458517
143.96396396396395,12.013718903458267,4.098828602451636,3.755773609926278
144.14414414414415,9.546093766561235,4.638766077096572,3.889781287902794
144.32432432432432,8.676678557132059,4.590835567573802,4.601284235242669
144.5045045045045,7.64868714110734,4.155374565629669,5.314480566644968
144.68468468468467,5.348732304181598,3.406180118803959,4.688361697133549
144.86486486486487,5.793766437254353,4.110360224028041,4.540085941189059
145.04504504504504,6.197680514012366,3.5041541308526534,4.389793150817768
145.22522522522522,5.194372815450753,3.6279096251801075,5.007546270051958
145.40540540540542,5.306564362966051,3.450107667907288,4.766662195455856
145.5855855855856,5.985835646621584,4.176092833650061,5.598216432442184
145.76576576576576,4.824468882616327,4.120793725662718,5.88652273585154
145.94594594594597,5.447308433260445,3.593708806129638,6.00465921123162
146.12612612612614,5.163127310925889,4.691120238350036,5.149136687736522
146.3063063063063,5.656310556667355,3.563820164119874,7.227898110573866
146.48648648648648,5.263474867611086,3.698851925682463,7.407059504501404
146.66666666666666,4.943996269022702,4.339944128408185,8.255793402672795
146.84684684684686,4.496245476931224,3.9491107620086594,10.117307877595195
147.02702702702703,4.2936853492043365,4.659004229495911,11.72221129818338
147.2072072072072,5.373521364383115,3.7618716738904654,12.734742685775522
147.38738738738738,4.84211035000618,3.8216667974006278,14.259811541495077
147.56756756756755,5.3026939906756265,4.358791905587489,13.784415958247553
147.74774774774775,4.520161854981845,4.048945324657603,15.14327725874367
147.92792792792793,4.792947813312225,4.102168351573485,15.89031204628504
148.1081081081081,4.219095367431352,4.653396588573084,11.060855236363313
148.28828828828827,4.583195697315398,4.700489504060818,10.664078614622237
148.46846846846847,4.562790314233887,3.756146640960146,11.281310183758343
148.64864864864865,5.277790101897291,3.4111411235133713,8.444810183116868
148.82882882882882,4.409086692897572,3.4896994618993404,8.611060726059568
149.00900900900902,3.8420097204513106,4.0572266572619755,6.9031006499874525
149.1891891891892,4.041102592965279,4.191409654518687,5.516022592801512
149.36936936936937,4.9052619016019365,4.576050116248638,6.406359646756422
149.54954954954957,4.902541810987119,4.815760363108211,4.7237958510528815
149.72972972972974,4.332268227352601,3.788935783184568,4.528506944638537
149.9099099099099,3.690917848240692,3.9760189742064127,5.130199661359654
150.0900900900901,4.357736853298214,5.03274387141983,4.3281039344713825
150.27027027027026,4.744379923069521,3.5710370132772806,4.244932537611123
150.45045045045046,4.190837709274388,4.32875591004971,4.585762070831878
150.63063063063063,4.659094494076569,3.882461562396251,4.82584378182614
150.8108108108108,3.8571026204031735,3.7551045837747203,5.031012913125836
150.99099099099098,4.894807667848434,3.4477722014779566,3.8370417584301637
151.17117117117115,5.040146387406847,3.9393241798967553,3.9452806433093848
151.35135135135135,4.5831105072330764,4.430713343131751,5.0990585319579775
151.53153153153153,5.05565699775578,5.107119855739453,4.501115629566719
151.7117117117117,4.438516779128776,4.523358784188691,4.697471054449535
151.89189189189187,5.347608355171282,4.1062847279149,4.085558925611973
152.07207207207207,5.96468138343198,3.8337686539987725,4.464618184611369
152.25225225225225,4.955943208910587,5.071034509798227,4.896629992690816
152.43243243243242,4.8073636513373454,4.383351885642051,3.990167161157734
152.61261261261262,6.449652070308831,4.556563112353888,3.9801568478033285
152.7927927927928,7.425597658645256,4.41818435771721,3.875651745852283
152.97297297297297,8.278139970313397,3.4175478232573036,4.866391106827331
153.15315315315317,8.606438431849579,4.674999903688705,4.5500872655671
153.33333333333334,8.189305177012374,3.9292956961194205,4.2074745157980855
153.51351351351352,11.027111543112644,4.054128870958829,4.375451710862508
153.6936936936937,11.827123331308197,4.679424676062897,4.830180319512756
153.8738738738739,12.601046572989402,3.6827490607645834,5.131012555767539
154.05405405405406,13.444338699934342,4.026231442983194,4.264832975850895
154.23423423423424,15.009095697422344,4.001877981836409,4.262824635211066
154.4144144144144,13.814957481022942,4.731158528812977,3.9385511772601847
154.59459459459458,15.828582465485507,4.6581021750514005,5.024793384012565
154.77477477477478,17.254200577792997,4.013025567681458,4.598839062207768
154.95495495495496,13.924800642103563,4.497389029724435,4.65528939420406
155.13513513513513,16.357743372890358,3.9301776191222135,4.421638976482982
155.3153153153153,12.751348237314527,3.8305887913020684,4.788310598963639
155.49549549549548,12.920092493251193,3.835754677675234,4.171254682208032
155.67567567567568,10.92328616075284,4.936951880304102,4.1484561711049155
155.85585585585585,9.828112291362968,5.235989831197939,3.9779478323684168
156.03603603603602,8.519036008150536,4.1226314701486615,4.595272799748726
156.21621621621622,9.999595719451907,5.437053294411621,4.961367005001217
156.3963963963964,8.030878327607418,4.516223061244877,3.9129479964402503
156.5765765765766,8.124722139294528,4.119948228396567,4.277964455329865
156.75675675675677,6.427750630432005,4.5496112806434965,4.509675966547638
156.93693693693695,5.317182190766825,4.859919177642992,4.126650489948283
157.11711711711712,5.264735319568672,5.166446799915153,5.074803967913183
157.2972972972973,5.063903072819509,5.804810048946082,4.137377676931568
157.4774774774775,5.247986216046903,5.6581389112210125,5.581032889908489
157.65765765765767,5.583790804065092,6.666986194312157,5.241650738169232
157.83783783783784,5.529138138803115,5.22800740403232,4.722898836548944
158.018018018018,5.63888570718049,6.792161671143332,5.39138014924976
158.19819819819818,4.672481921034026,6.3970428051457064,5.782433574558457
158.3783783783784,4.142799185344845,5.502125909402255,5.837730948644598
158.55855855855856,5.455494348120379,6.041487815438431,5.780255264522401
158.73873873873873,4.716171761403403,5.770825656144296,7.885053854033228
158.9189189189189,4.827119579128894,4.64662538666457,7.671507447328637
159.09909909909908,4.959181519910128,5.20424938513195,7.913376353585447
159.27927927927928,3.781725183835864,4.480970771273189,9.436921505647504
159.45945945945945,5.100207911745845,4.82043423458535,8.213740490793818
159.63963963963963,4.8072096812436875,4.3405369246164325,10.5788376766273
159.81981981981983,4.477728828639005,5.362225002591804,11.079208515202872
160.0,4.226303861158394,4.122633890252558,10.641466195049263
160.18018018018017,4.494156902166676,4.391819896560674,10.394378005087102
160.36036036036037,4.340352994262537,4.387467597406277,11.255727159553068
160.54054054054055,4.459229137006608,3.937047208408997,11.380317117245365
160.72072072072072,4.169758728710378,4.434506082172928,9.035326205468248
160.9009009009009,4.8439797196528644,3.500780872333493,10.202788759583761
161.0810810810811,4.495169093150384,4.852360070693458,8.378824474609422
161.26126126126127,3.817250305821792,4.843870985531074,7.053337960900136
161.44144144144144,3.3376002423208413,4.218731044024108,7.858229533907222
161.6216216216216,4.527545648223188,3.6629596472006365,8.215308992973155
161.8018018018018,4.854604020503055,4.106879979814243,8.595296038277498
161.981981981982,3.775124744110198,4.095427890688073,8.273268400002378
162.16216216216216,3.9875897601547954,4.350659639052095,7.160808371478729
162.34234234234233,4.402288412995164,4.163293799643551,5.783211208987899
162.5225225225225,4.393463312254262,4.417739548966062,5.866880684702706
162.70270270270268,4.528784119955831,4.159890262309646,5.338891773794409
162.88288288288288,4.280328436549972,4.34447720547891,5.703701300658826
163.06306306306305,4.436732301642211,3.770581256942842,5.497524654043383
163.24324324324323,4.936907884467125,4.532157450609646,4.697493560051707
163.42342342342343,3.943386236212107,4.2679093711245235,4.96478319740658
163.6036036036036,3.628999071669513,3.397779682586772,5.115890814190249
163.7837837837838,4.415804324180227,4.010347680275605,4.605549643555469
163.96396396396398,4.885026841861703,3.589588102737585,4.312602772805704
164.14414414414415,4.298644184474349,4.533719970260017,4.567033942688878
164.32432432432432,4.074000254242905,3.670625890448891,3.8141120406090456
164.50450450450452,4.2391310424564415,4.512296415491658,5.050520597311763
164.6846846846847,4.169276718180252,4.477884569070935,4.947991014483919
164.86486486486487,4.237646002173108,4.030084924347359,5.564598096174665
165.04504504504504,4.553333669265145,3.927285312674399,3.990550825810965
165.22522522522522,4.4117856917995715,4.303343476629501,3.6352814913773344
165.40540540540542,3.9747286066481866,5.040698765210983,4.365435089193386
165.5855855855856,3.9487252687944254,3.970867989793091,4.348471633595465
165.76576576576576,4.468462895743985,3.303665444848181,4.868911655226434
165.94594594594594,4.703337654837719,4.345760018018027,4.834526975075968
166.1261261261261,3.3201419790050086,3.924444739887509,4.008323267681106
166.3063063063063,4.702160663169198,4.732236654065409,4.059626499885742
166.48648648648648,4.388153276386668,4.914845324250769,3.91651804714826
166.66666666666666,3.8226994862654915,4.588443966515156,5.236795987476069
166.84684684684683,3.8579744587679428,4.38494279889141,4.268824179935144
167.02702702702703,4.676811238484836,4.4956283431004245,4.143895556408747
167.2072072072072,4.5071857322402336,4.053059047656121,4.1545855391421505
167.38738738738738,4.605638885083791,4.336788363077861,4.607146884675757
167.56756756756758,4.227219005823803,5.166503748223945,4.598598380632459
167.74774774774775,4.108531973272635,4.341506136021606,5.094343995758749
167.92792792792793,3.757130429169191,4.068730789669483,4.36502532850292
168.10810810810813,4.199440990733732,4.424683727734688,4.1179304213083086
168.2882882882883,4.0646583404608645,4.573854374952176,4.617927847470732
168.46846846846847,4.481764808510565,4.331743809110635,4.8371005615168245
168.64864864864865,3.7036789283234084,3.9204509717708866,3.749014483034201
168.82882882882882,4.14458250685225,4.30207546858384,3.803575334538219
169.00900900900902,3.5305215768180713,3.886234378726059,3.431826304936024
169.1891891891892,3.9645889182209104,4.213014349606468,4.283207231866403
169.36936936936937,4.723170205913126,3.724365028666457,4.037005091901564
169.54954954954954,3.9503295301265218,4.523498227757154,4.213709288127588
169.7297297297297,3.6619412150933273,4.684841493751511,4.350057309325939
169.9099099099099,4.21159928494358,4.1474325626454265,4.321876132088885
170.0900900900901,4.4186581260710165,4.666614237419711,4.195902053461888
170.27027027027026,4.313744211312253,3.964688613256351,5.126049158774039
170.45045045045043,5.6215303692208,4.366662256666941,4.612579957737974
170.63063063063063,4.2923187707200094,4.321254830430187,4.776194933841867
170.8108108108108,4.06363227956984,4.245490153405654,4.645157963592591
170.990990990991,5.070971843119529,4.142215578339876,3.7939607223917333
171.17117117117118,3.8689274707029697,4.73525342994133,4.247387752080097
171.35135135135135,4.48117151991368,4.215814629997732,4.007449497962856
171.53153153153153,4.356010764608835,4.391767530451371,4.186021897638717
171.71171171171173,3.9798517836188676,3.848378637805487,4.142837364382503
171.8918918918919,3.891836771999436,3.9034885316932555,3.8582773389497023
172.07207207207207,3.7186967514984084,4.383905992344877,4.847208085228845
172.25225225225225,4.449323565988041,4.3872644415451605,4.078408237464921
172.43243243243242,4.315315740510188,4.510211518875678,4.677557965763608
172.61261261261262,4.567914674273817,3.9164327110625785,4.388871149387159
172.7927927927928,4.648463467090278,3.9922898693417235,4.547572453717437
172.97297297297297,3.7050115783493576,4.561422278909897,3.801034262744547
173.15315315315314,5.173607170421065,3.714934246971127,4.167308723363021
173.33333333333331,4.416575421058134,4.027399290516929,4.057220892044645
173.51351351351352,3.9931990563583484,2.980604908489385,3.739854159705366
173.6936936936937,5.19299052625297,4.5403672072234205,3.8913076097355743
173.87387387387386,4.612065228124111,4.296535043535342,4.848602230556136
174.05405405405403,4.160111838668518,3.588345884839958,4.077421250800908
174.23423423423424,3.6242859311837297,3.7251880482506707,4.447971710729082
174.4144144144144,4.383289089488854,5.462768792593117,3.670340995160081
174.59459459459458,4.11958722408417,4.072753821268916,4.497825503963124
174.77477477477478,3.8135766432805167,5.087077248819786,3.180509617827444
174.95495495495496,3.7263995308714137,4.707068985907465,4.216693046642188
175.13513513513516,4.062642122623597,3.9419562433930233,3.9054962076349584
175.31531531531533,5.580942608191706,3.838498244390892,4.186958793439386
175.4954954954955,4.144846418679438,4.4549744605072235,5.059209844987426
175.67567567567568,4.255267946310684,4.031501791857285,4.801658965540904
175.85585585585585,4.41949340318063,5.206535852904712,4.546474175870172
176.03603603603605,3.9201063440118133,4.51611124498754,4.228878895792348
176.21621621621622,4.402622104659943,4.599528418037456,4.783618156274876
176.3963963963964,3.978819633410026,4.233716566544143,4.258263204319753
176.57657657657657,4.556619249551503,4.634952083552442,4.460723101476992
176.75675675675674,5.284714235137749,4.523808094661064,3.983876036837541
176.93693693693695,4.332935197892848,4.081905584403708,3.5810864110466634
177.11711711711712,3.7905483932499417,4.1972632519308135,4.703959348823816
177.2972972972973,3.6216120137917582,4.644741768978486,3.8414304292133448
177.47747747747746,4.749081672497089,4.0157275568478,4.35025654691996
177.65765765765764,5.506887032319791,4.173393191856263,4.418800704247072
177.83783783783784,3.8759389990498665,4.808231202483129,3.888992992190145
178.018018018018,4.089057076987115,4.517003407062305,4.856289999627095
178.1981981981982,4.640511943450958,4.02840611552742,4.38557786929977
178.3783783783784,3.913649838467642,3.6867318105325735,5.063813142871764
178.55855855855856,5.060094629517914,3.938682211211611,4.315495002021174
178.73873873873876,4.2449342361708915,3.7703538480911485,4.801069578751859
178.91891891891893,5.038618905232753,4.661782310520903,4.751300522876465
179.0990990990991,5.735241349910797,4.358043422355184,4.395610612073586
179.27927927927928,5.974414897906277,4.457666876756558,4.155506784154535
179.45945945945945,5.190820552671101,4.45815481491873,4.619015404690344
179.63963963963965,5.094402492176567,4.168878590291334,4.4387049655407225
179.81981981981983,4.899992160750664,4.757038314610177,3.725433020669829
180.0,3.1734294534601117,4.365094912541729,4.519274428121348
