angle,SC,BCC,FCC
0.0,2.27089305921414,1.9395068770149269,2.1311242680167455
0.18018018018018017,2.1770760455420635,2.153572024381766,2.166849968241375
0.36036036036036034,2.1701222471082957,1.5439202482339736,1.992652057253225
0.5405405405405406,1.801682217493489,1.9135196713934588,1.996626126296663
0.7207207207207207,1.6734827293360677,2.0274139657881607,1.7646508398905318
0.9009009009009009,2.1707495791234916,2.141557368460856,2.1532003777753808
1.0810810810810811,1.902857000636353,2.0330062636790784,2.2552129704505854
1.2612612612612613,2.1468301786326585,1.822763193792596,2.1344214061230806
1.4414414414414414,2.2524530250208934,2.0643280376786515,1.807487236173588
1.6216216216216217,1.88746912916435,2.2327250879742953,2.152395169360302
1.8018018018018018,2.154931022009665,1.9510733697403442,1.702230225561816
1.981981981981982,1.9222574141784756,1.6014710290882743,2.0517108721187918
2.1621621621621623,2.023380421886493,2.1787200816738173,1.7729356616340486
2.3423423423423424,2.018572454640406,1.8335063916576042,1.9276495781606728
2.5225225225225225,1.7468613636917707,1.7744863055429374,2.4381470145695134
2.7027027027027026,2.0394134436456666,2.218629858328357,2.205741426582707
2.8828828828828827,2.1819932714576584,2.477973260186947,2.1933130323514636
3.0630630630630633,2.0764709729846604,2.0007866014632363,2.168576458931304
3.2432432432432434,2.025501500014497,2.0623617852484952,1.9739318293013437
3.4234234234234235,1.8487861002288883,1.961755353122378,2.181305454000976
3.6036036036036037,2.22444253392443,2.200756396871574,2.1463063057382032
3.783783783783784,2.174245450564767,1.8144667641531074,1.9861286425810043
3.963963963963964,1.9863793033775512,2.154385632533034,2.179421604403564
4.1441441441441444,2.077280539210201,2.1959816122783695,2.0787490847418044
4.324324324324325,2.3395831567665697,1.9118275540343055,2.241183357483159
4.504504504504505,2.439881040177361,1.9010872840748883,2.2749004023759225
4.684684684684685,2.3320776355747497,2.252904405768472,1.8026169362851345
4.864864864864865,1.9558725893648994,2.108396707810387,2.094031997708609
5.045045045045045,2.0539860202969575,2.3249148950702394,2.2843521365613904
5.225225225225225,2.0465712683870767,2.1743399028613886,2.118973912959189
5.405405405405405,2.276183776857879,2.3539111989395503,2.1482410825373788
5.585585585585586,2.2551769884170567,2.1926096648237143,1.9318012966725249
5.7657657657657655,2.2993814369643433,2.3553056209789944,2.2993290651696823
5.945945945945946,2.702641490464358,1.592884523217036,1.959406888322957
6.126126126126127,1.8917533927072503,2.3922557772185646,2.059065192306848
6.306306306306307,2.2580709772332317,2.106051327736968,2.1149228497041856
6.486486486486487,2.3405557028420048,2.166390950348644,2.1446063683857073
6.666666666666666,2.2527147123881632,1.9445771558771028,1.9466391337619326
6.846846846846847,2.4967731446504633,2.01182361627013,2.0720043847422147
7.027027027027027,2.2705675171106208,2.2469672934087512,2.053887411354159
7.207207207207207,2.182707134277987,1.9390098630213142,2.2914089934774737
7.387387387387387,1.9193564792933757,2.615267449369985,2.009336194077023
7.567567567567568,2.059269867891288,2.1854895131458743,2.191444590872479
7.747747747747748,2.002535477602943,2.391190688416372,2.169552846041737
7.927927927927928,2.41932620340365,1.9541832051472234,2.736997476199253
8.108108108108107,2.1013886233738983,1.794956416451774,2.171258048446836
8.288288288288289,2.520440215395781,2.2154935913132157,1.9905872919671568
8.468468468468469,2.2385147223539663,2.254567827541186,2.379587119579283
8.64864864864865,1.9714006890050277,2.380863411431962,2.295398115167637
8.82882882882883,2.074365744183049,2.233538551031916,2.3247892121367832
9.00900900900901,2.1302410825080096,2.316682741947996,1.7264057224699512
9.18918918918919,1.8889271127133387,1.9786322396537959,2.1375522269430234
9.36936936936937,2.4630626904244886,2.7909993797091985,2.0491720570755496
9.54954954954955,1.9335301915841496,2.2028845868516624,2.413386399212545
9.72972972972973,2.355137869027339,1.9847381011767085,1.846339594866965
9.90990990990991,2.4172729339420673,2.223315996034515,1.8309506047639
10.09009009009009,1.9646775989154546,1.951598247205297,2.143130953642518
10.27027027027027,2.011216400158569,2.343952463379537,2.3327411496571306
10.45045045045045,2.4580425836972193,2.43528242088155,2.0409113822994507
10.63063063063063,2.087672005874846,2.3591910597794206,2.419705066900831
10.81081081081081,2.1713941682107225,2.1155548745399937,2.2451868008829687
10.99099099099099,2.6867279538658453,2.1145732267229573,2.2717427567843296
11.171171171171173,2.153322221523613,1.736445009459855,1.7860627950072532
11.35135135135135,2.483419188014837,2.3431445271343594,2.4198398644195405
11.531531531531531,2.48529725872337,2.5219075202376278,2.0229105061472006
11.711711711711713,2.2783609568962717,2.0321628160883902,2.645426497464626
11.891891891891891,2.336160976437363,2.33345250618754,1.9173783117450434
12.072072072072073,2.305761707358211,2.489378488834352,2.230733078370421
12.252252252252253,2.315376044021268,2.1563444360644035,2.217831118134705
12.432432432432432,2.094821140744368,2.2157430769632076,2.33796587533377
12.612612612612613,2.348608094411835,2.5861510032120516,2.3699816380988863
12.792792792792792,2.453095598487094,2.411326075883043,2.1695203020511182
12.972972972972974,2.1874156916357923,2.12041648217086,2.1534606196684614
13.153153153153154,2.0312783663102554,2.595783354017494,2.466610507301356
13.333333333333332,2.643605790250039,2.43778018809316,2.3146418847587524
13.513513513513514,1.949112314864983,2.5398220631723416,2.513573079581841
13.693693693693694,2.2740464610122255,2.534472945208769,2.5334497224365506
13.873873873873874,2.473753928042873,3.12337307373229,2.640043055288734
14.054054054054054,2.279718087094453,1.706273941555203,2.3708894629051462
14.234234234234233,2.449576999389144,1.8700923091920139,1.9805759985944187
14.414414414414415,2.3150760598107913,2.4126211156077466,2.088997321591683
14.594594594594595,2.3696046800344126,2.320902662066165,2.19587080580974
14.774774774774775,2.1873725707426113,2.4652440094178694,2.3401931471867514
14.954954954954955,2.4667810411462936,2.579445955328962,2.4173254842087744
15.135135135135137,2.12947614437542,2.278921204633689,2.091691083759063
15.315315315315315,2.292555230025405,2.124019914789483,2.70858773185926
15.495495495495495,2.350833201861139,2.603560061509593,2.1906683382548278
15.675675675675675,2.2882134987616567,2.6181691441892267,2.650682823155264
15.855855855855856,3.0463397065358477,2.352579656108561,2.1022206832722223
16.036036036036037,2.0045489797700795,2.2312399233640527,2.1874396272336285
16.216216216216214,2.2866240230236103,2.735228249597618,2.0764708843006994
16.396396396396398,1.6791571270011074,2.1298732197358046,2.5170034897287534
16.576576576576578,2.4050694835226856,2.57508962354297,2.3997663200508628
16.756756756756758,2.51199824020917,2.5622153625848996,2.2348899992990137
16.936936936936938,2.1884566915672674,2.4707565506497127,2.1946109709303427
17.117117117117115,2.0777848840903412,1.9714131484291106,2.1865989119735656
17.2972972972973,3.006546347795147,2.5500603539234983,2.226131113916599
17.47747747747748,2.419581887280682,2.2885505195472216,2.0621090076397435
17.65765765765766,2.2839327472920146,2.581850927561304,2.2782902033184347
17.83783783783784,2.1575391179705035,2.245102795048321,2.281333749537462
18.01801801801802,2.545872526564383,2.549524762041794,2.1504625607001997
18.1981981981982,2.1307633156514987,2.584826469421466,2.5065185372478873
18.37837837837838,2.5918851432929517,2.4579741873980887,2.459808079448757
18.55855855855856,2.281962554037219,2.2480071391690437,2.453765327672852
18.73873873873874,2.5823020038709292,2.299240333778283,2.2377378124194083
18.91891891891892,2.2375237356371964,2.8802607108264717,2.398084967571445
19.0990990990991,2.7389142909614073,2.734369313487581,2.55570575212142
19.27927927927928,2.544083815915939,2.3392565071803197,2.352963350334122
19.45945945945946,2.3488358494221684,2.523664699755435,2.5135931537687117
19.63963963963964,2.3587320506830096,2.4353879226763824,2.4139472990774697
19.81981981981982,2.6627242009649787,2.340316125105339,2.2966233062476187
20.0,2.5702812539990094,2.6525809979614623,2.4551935267643423
20.18018018018018,2.5154368742916557,2.698971093758311,2.8461174608371564
20.36036036036036,2.526722975462628,2.0299801142902236,2.5694699761526674
20.54054054054054,2.573904731103744,2.570948666629695,2.667438719635855
20.72072072072072,2.898809215450737,2.554977540242269,2.6804183081188544
20.9009009009009,2.369417490716136,2.4443904351648573,2.9855624262160356
21.08108108108108,2.573171279492276,2.8818902584264836,2.741854974881428
21.26126126126126,2.4415211824259373,2.293189394341966,2.7470808413788954
21.44144144144144,2.7903592073449293,2.465413704111837,2.574025825570161
21.62162162162162,2.503097071364135,2.3689778512985917,2.283772193986353
21.8018018018018,2.6662131834029124,2.6016806737209057,2.0549803528414987
21.98198198198198,2.4324649303825,2.7999093971022444,2.951941962919317
22.16216216216216,2.9190478740116172,2.520524061892473,2.1838139181780396
22.342342342342345,2.265520562378236,2.834581762026293,2.739847294321518
22.522522522522525,2.228133090089281,2.9819983441644786,1.9312656906238268
22.7027027027027,2.7947934549900335,2.3055019960036813,2.0446142005472
22.882882882882882,2.0915559635272727,2.738283444029156,2.4376083072378285
23.063063063063062,2.817328923450609,2.463011591721805,2.8005730401826847
23.243243243243246,2.827855751722395,2.368385040696167,2.5457320130595478
23.423423423423426,2.3216793203401664,2.8532584611793816,2.9326775342549563
23.603603603603602,2.5019235028047206,2.638170597616,2.4650419966622747
23.783783783783782,2.6428514187289265,2.6137716058541356,2.5022408879810456
23.963963963963963,2.6143160773273855,2.6508723736900146,2.138789106841085
24.144144144144146,2.7104701554146082,2.4502064747467607,2.418862071581877
24.324324324324326,2.492177416444346,3.0677498517292436,2.9859112599356394
24.504504504504506,2.884560960547911,2.58836396694681,2.2509278758084594
24.684684684684683,2.7440226719778384,2.960907383763295,2.5742274818813002
24.864864864864863,2.9789231052695606,2.8425868137095476,2.586058408822311
25.045045045045047,2.6438880278801675,2.6380453021788615,2.7724829084808507
25.225225225225227,2.6391921497021067,2.640214289722481,2.286961172413311
25.405405405405407,2.6315351132727622,2.4749233702577307,2.0244960152267213
25.585585585585584,2.623978919052204,2.2079489507989956,2.314975159982754
25.765765765765764,2.405300348228855,2.1133603763983597,2.287920385240853
25.945945945945947,4.01111387502698,2.6800463299664736,2.5474729709505985
26.126126126126128,3.6813659831162733,2.466272858418489,2.4897712160049092
26.306306306306308,6.15359947710803,2.799752345083894,2.7852958468186153
26.486486486486484,9.98983074403357,2.1988969294617453,2.616017381974429
26.666666666666664,11.409196020066162,2.4813478832766855,2.662407308150108
26.846846846846848,7.2665691678457405,2.945206580884196,2.324059972307296
27.027027027027028,4.670650204737234,2.926794193467342,2.5782004741987814
27.207207207207208,3.3403139272461124,2.4788535452084246,2.65659060157489
27.38738738738739,3.0713932046022614,2.4651773913696213,2.3842544644043446
27.567567567567565,3.13346600070297,2.3633353741213163,2.382343060528822
27.74774774774775,2.8046362777851246,2.7242928367600325,2.3316203300453546
27.92792792792793,2.7605321158588874,2.8671116482836445,2.259625180828709
28.10810810810811,2.9255541377657135,2.585463198445824,2.2560682598759025
28.28828828828829,2.9102577137804513,2.6849498867997825,2.323949231043841
28.468468468468465,2.917781710395625,3.0512236768252197,2.2531728630543326
28.64864864864865,2.784891749570421,2.858999858569664,2.560085455950354
28.82882882882883,2.7706993655330727,2.7332812809794014,2.3279393419510592
29.00900900900901,2.8411492530708418,1.8313164787731937,2.5333240203435263
29.18918918918919,3.075746299875173,2.7482936466081798,2.824053479603245
29.369369369369366,2.632747724884419,2.7543341376120907,2.418665960321767
29.54954954954955,2.4183197588281713,2.7652200801159394,2.6690122079783776
29.72972972972973,2.5479938296080893,3.021406479639491,3.0808826811660235
29.90990990990991,2.843264270889424,2.6906721393600823,2.3956140881737356
30.09009009009009,2.7478295859171764,2.438596676234682,2.2130791858013104
30.270270270270274,2.6168135311512257,2.6160486139835295,2.9842945411361317
30.45045045045045,2.706583654123182,2.414637918995946,2.970287678013578
30.63063063063063,2.2294594381663266,2.3067911346992203,2.7035911367581638
30.81081081081081,2.526360172878237,2.829800266560572,2.529099031522991
30.99099099099099,2.7273618413251013,3.0333583789068266,3.1801300281265616
31.171171171171174,3.251530197132037,2.8921821348887655,3.1533603308079328
31.35135135135135,2.733661010114741,2.2383546001005508,2.749652702135749
31.53153153153153,2.931039659408022,2.462905102189723,2.857369317764197
31.71171171171171,2.646120331067023,2.4924641856884926,2.8012271523103847
31.89189189189189,2.8467668202818253,2.831718148307145,3.1702723695860526
32.072072072072075,2.7300288404305677,2.6702708300124067,3.0740437666189204
32.25225225225225,2.610975736617522,2.6802680474760647,2.7626326092667624
32.43243243243243,2.720228999492594,2.6885794908223173,2.384598634098953
32.612612612612615,2.558393230144571,2.492888368332278,2.7943462088852273
32.792792792792795,2.735262300068197,2.5898948265481887,2.5845071129263992
32.972972972972975,2.6304026370520672,2.766673422676655,2.6601496074817037
33.153153153153156,2.180545091053522,2.658726400860637,2.6840470021952094
33.33333333333333,2.7764694012726925,2.9024474285154986,2.778372713645884
33.513513513513516,3.0881992523740482,3.048742297559136,2.492982713442386
33.693693693693696,3.257201013759802,3.0871085961009523,2.6326289681828468
33.873873873873876,2.853777162608887,3.0191881782146757,3.3421389980700194
34.054054054054056,3.0123088942774405,2.3047725632036453,3.1985202213145603
34.23423423423423,2.3588405203300575,3.225710741372189,3.018204307677437
34.414414414414416,2.872730003833485,2.6019451885581004,2.1549507230364746
34.5945945945946,2.9966578387327503,2.9643973762509876,2.4883834401738953
34.77477477477478,3.091480093699211,2.4749752616467857,2.474725999467345
34.95495495495496,3.2074290979926867,2.7020728844022837,2.5854658183162584
35.13513513513513,2.9982749194631877,3.0907219199848828,2.9297814477836037
35.31531531531532,3.401983811380331,2.7730421575415822,3.0552621349855906
35.4954954954955,2.9717613531273317,2.8626383998467273,2.9816138413867397
35.67567567567568,3.3487955622894967,2.673915558613383,2.8631672525966367
35.85585585585586,2.7862870062285037,2.884401615068097,2.670100641844028
36.03603603603604,2.9667195047991446,2.6305341791864847,2.740069254278553
36.21621621621622,3.2045714203073676,3.342974805930564,2.318596872367499
36.3963963963964,3.0373104125105646,2.723295028781509,3.078569567163036
36.57657657657658,2.5264124744108183,3.210427898126361,3.067647683555734
36.75675675675676,3.4132528145825445,2.8698895010896535,3.2437598542061346
36.93693693693694,3.4988353059170656,3.3752139731554087,2.6613032441901177
37.11711711711712,3.367057811454274,2.697882760508119,2.631718117555922
37.2972972972973,4.028987426626147,3.215670963961214,2.9622010207578593
37.47747747747748,5.500762660045627,2.6519872319012547,2.4075510716696535
37.65765765765766,10.276695108779352,3.131402159910673,3.0212542229469594
37.83783783783784,16.28766227660963,3.8306365078561067,3.0174601023806606
38.01801801801802,20.99992846529505,4.730546295083553,2.8206989504679774
38.1981981981982,11.398855815125124,7.651311288020309,2.8912223041307614
38.37837837837838,6.854931553152981,16.28969160504705,2.613599017761324
38.55855855855856,3.796734055863209,18.332900495928175,2.699752861318772
38.73873873873874,3.9475364925457073,17.868370698879552,3.3469486755781155
38.91891891891892,3.2891894245963353,9.689727954354481,2.7965420040194777
39.0990990990991,3.4795536736775596,4.665388086682975,3.184741275038955
39.27927927927928,2.757140295911553,3.340353604888014,2.900714048609746
39.45945945945946,2.760340764297796,3.8888002751991793,2.879951513701181
39.63963963963964,3.113153009092951,3.125897843804016,3.1883968309250945
39.81981981981982,3.274931950331717,2.941805837808924,2.342662467585213
40.0,3.0296151215080256,3.2133562686670407,2.482079703591815
40.18018018018018,3.4053972434469406,2.7542649679541444,3.1374657715124803
40.36036036036036,3.464432622976452,2.637130611840926,2.8332958907655685
40.54054054054054,3.61680558820442,2.7585497448962757,3.226819666644829
40.72072072072072,3.2061015249615448,3.3440457749710646,2.917293248788328
40.9009009009009,3.477372976018716,2.4688505326727017,2.8206171042410686
41.08108108108108,2.636015892731701,2.542452339941991,3.1253403724658715
41.26126126126126,2.733486364638443,2.7879844289164617,2.853798166527412
41.44144144144144,3.4372935167583223,2.4206620723408223,3.315306617553098
41.62162162162162,2.9185545180613994,3.3328378604630102,3.5320970086521086
41.8018018018018,3.013805036077582,2.812783555698923,2.9097574037970806
41.98198198198198,3.2607978223754306,3.1522454466339016,2.9999703545406353
42.16216216216216,2.5550763467574784,3.187301086494384,2.6210861595291206
42.34234234234234,2.8083042860324103,3.3558417250670027,2.810636625453384
42.52252252252252,3.06687630547611,2.430249648005904,3.1919750044825537
42.7027027027027,3.219343146827548,2.889494137831829,2.51142492764299
42.88288288288288,2.7503538918125603,2.9066148145472632,3.2780594882950562
43.06306306306306,3.514355983156954,2.8475085715635866,4.504982304957846
43.24324324324324,2.8174449152539913,3.0087243185533725,6.600501325100229
43.42342342342342,2.600981677987913,3.467277946258968,12.033856271423833
43.6036036036036,3.0079889537727444,3.276746558105416,18.665109144300896
43.78378378378379,3.3312761230851518,2.9710027904270078,11.063292790231026
43.96396396396396,3.640664416157206,2.3859807257557857,5.811818734424316
44.14414414414414,3.478572211547684,3.1266418780069953,4.840715657795286
44.32432432432432,3.2240672943934854,3.1586570256981936,3.705645567099535
44.5045045045045,2.6427454109489337,3.132529583895766,3.30594440406899
44.68468468468469,3.170765094915219,3.0240922044952856,2.8606434464363533
44.86486486486486,2.7227067346653024,2.376349253683196,3.303670987992647
45.04504504504505,3.216235592596914,3.0034212580167075,3.379573744029683
45.22522522522522,3.459733903153548,2.812482267997203,2.9548472184694123
45.4054054054054,3.391533744205218,3.2169842885578155,3.1474151698824295
45.58558558558559,3.418960616900472,3.096207249179567,3.2572823596205445
45.765765765765764,3.3905738859379015,3.615170149644327,3.1503252046134818
45.94594594594595,3.349178782368838,2.8657241682554186,2.8373753066621816
46.126126126126124,2.885346528775187,2.900216885952562,2.445629855577386
46.306306306306304,3.8677166240727954,2.981697923123233,2.6418701676080043
46.48648648648649,4.701386217540572,2.8079264412752716,2.9145903468114414
46.666666666666664,9.650989355089804,3.077529423471735,3.448203197036618
46.84684684684685,15.789283178127036,2.8198490170331363,3.2359789854496226
47.027027027027025,12.235149945584116,3.2592435208246764,3.164978793871164
47.207207207207205,8.97505248406708,2.9906072145117113,2.8778038537738873
47.38738738738739,6.056266174748442,2.9789902882776373,3.8068746159593516
47.567567567567565,3.5507323977661542,3.1672760430924756,3.12609697341534
47.74774774774775,3.660529900698235,2.670569840245449,2.5003832032495086
47.927927927927925,3.021607028350886,3.1645757938269097,2.8424021386464906
48.10810810810811,3.059952001359975,2.612645004279194,3.336757252104081
48.28828828828829,3.3750962166209666,2.995117497046156,2.883121939983775
48.468468468468465,3.643699409335406,3.007726370556816,3.029265673090732
48.64864864864865,3.2908639660807717,2.867800548936602,3.185250596359779
48.828828828828826,3.2853870862883627,3.182301004118731,3.151470773641721
49.00900900900901,3.591837775499715,2.8744945763750693,3.3075536563094685
49.18918918918919,2.9254419574643453,3.584592708398516,3.144731292246422
49.369369369369366,2.9262596775532956,2.791341553230759,3.258692529437358
49.54954954954955,3.2383654801812356,3.5741453213156014,3.5585662104746856
49.729729729729726,3.0325540671921574,2.968526014990489,3.6055363622985044
49.90990990990991,3.2770257413352164,3.124544348432523,2.8430590359519448
50.090090090090094,3.132462461571986,2.9796671570732594,4.2980527159841815
50.27027027027027,2.9929794864502184,3.3502078668393245,4.805088727231681
50.450450450450454,3.261498501538517,3.3389600363565086,6.577612287936307
50.63063063063063,3.149360630691549,3.2009320141318014,8.262587057887075
50.810810810810814,2.44153616412102,2.7712019740132,11.519465409823319
50.990990990990994,4.23214333138368,3.3471661229045298,10.063703024714574
51.17117117117117,3.104035679624399,2.6854827718185352,6.394003031082545
51.351351351351354,2.8931511456549566,3.411407803710078,5.824694302532526
51.53153153153153,2.822438273250205,2.6501104300182785,3.425686488979539
51.711711711711715,3.0524199905101774,3.247552160179651,3.1267509499032444
51.891891891891895,2.6992546051733024,3.123107380517293,2.9474788595916053
52.07207207207207,2.4649270016908438,3.0666373284000303,3.0116083827197486
52.252252252252255,2.7913928398199257,3.2107312833618886,3.5499482273922345
52.43243243243243,2.8992249847992277,3.0224779474461845,3.1925310689640862
52.612612612612615,3.311178192148792,2.7786168294169995,2.831639421885756
52.792792792792795,3.0007259040672247,3.7588759884715586,3.773672878219113
52.97297297297297,3.1615026397616557,2.8360018605873227,3.4751092483078585
53.153153153153156,3.200416789947409,3.3035447111373415,2.5248891828024935
53.33333333333333,2.642470620539965,2.8477650743558764,3.6579336593723433
53.513513513513516,3.3196060934491665,2.991654720056827,2.8080907492884437
53.693693693693696,3.4821394260895313,2.834882116923663,3.026523499464918
53.873873873873876,3.13504533202988,3.053461926844423,3.008154935246735
54.054054054054056,3.6824744921557104,3.6521844896329894,2.9383948750873974
54.23423423423423,4.332606955408649,3.0029864311925336,2.9929968149124933
54.414414414414416,6.479477186001536,3.332557250304412,3.346628411423406
54.5945945945946,8.079794386879598,3.1106165998176585,2.5613054109710207
54.77477477477478,9.893263813716896,3.4899365910322078,3.256419801326669
54.95495495495496,8.329288258510053,3.416304701431111,3.375021159626729
55.13513513513513,6.116239629794537,4.873277288140825,3.1234419564057614
55.31531531531532,4.443007998057966,5.685665289607215,3.732871056337345
55.4954954954955,3.8322316609333678,9.17029230166608,3.4635037717529937
55.67567567567568,4.085670410588513,9.62739289926811,2.706272670078333
55.85585585585586,3.0947087544724665,8.843499746066417,3.322016198859579
56.03603603603603,2.9226457964267167,6.103454979794427,3.0700730824756715
56.21621621621622,2.576827883371835,4.871309204742694,2.8397161046288457
56.3963963963964,2.9815536309757733,4.098286204681073,3.0906739445993594
56.57657657657658,3.3849799110415035,3.8840261585092057,3.357693098312155
56.75675675675676,3.555616669539201,3.4681543863175843,2.9566989373386705
56.93693693693693,2.632357382139854,3.488849157413516,2.936728758729522
57.11711711711712,3.87350405370755,3.210553120552533,3.515628264394222
57.2972972972973,3.6055798122579126,3.5802356160107878,3.634767606745031
57.47747747747748,3.222951520833423,3.7441244819956254,3.094052101378228
57.65765765765766,3.470870803501197,3.043219937766492,3.6176568816628576
57.83783783783783,3.4854830155395,2.655976529100926,3.053735374012996
58.01801801801802,3.9459551389619523,3.209885603993272,3.29999070865524
58.1981981981982,3.0529610775082183,3.0335441744720986,3.244105106100314
58.37837837837838,3.2745848112046207,3.2986268376510677,3.385933548947381
58.55855855855856,3.1516821989489197,3.30983673907316,3.082041640559442
58.73873873873873,3.368992173260471,3.2892616401424517,3.904469697896289
58.91891891891892,3.4550360926389465,3.608843961813468,2.595542251277295
59.0990990990991,3.7041450467773855,3.46230720085502,3.498153879892551
59.27927927927928,3.976269254148751,3.4232069383784487,2.9737319853719635
59.45945945945946,2.9651929064080944,3.986093502426233,2.8995117804673955
59.63963963963965,2.998687646207053,3.0833518539622604,3.289711871382135
59.81981981981982,3.7113553290296344,3.554280524905467,3.503854315809086
60.0,4.034531763752733,2.9562578802239057,3.311141761201013
60.18018018018018,2.8686664407886497,3.034357551825857,3.025653433484396
60.36036036036036,3.3858971292527804,3.1009403416225294,3.084236825065582
60.54054054054055,3.9445705697399025,3.598639620087254,2.2995355660892196
60.72072072072072,4.1347309122331435,3.1641816168249237,3.859773773422811
60.9009009009009,4.020239552663044,3.160770230790878,3.590901908511687
61.08108108108108,5.218575953961104,3.4573836643590043,3.4088362203010054
61.26126126126126,6.325460862642115,3.090607725596262,3.3522536303526094
61.44144144144145,9.807229521918048,3.552224191935631,2.7903296487021505
61.62162162162162,21.97233092769345,3.1490880899066744,3.7604997493380723
61.8018018018018,28.640040592260124,2.8856152412416796,3.0328156533327166
61.98198198198198,34.442600620500755,3.686624154586838,3.6948423832060118
62.16216216216216,22.938888477079797,3.549147045474889,3.0696115594605082
62.34234234234235,11.470638915071019,2.7218209920242065,3.1985240915400612
62.52252252252252,8.0686421085073,3.004641133922752,2.929573117099286
62.7027027027027,5.391051490285093,3.299902142870462,3.5598098145381813
62.88288288288288,3.833386860424446,3.436510297413486,3.33868525329024
63.06306306306306,4.6398478106473515,3.1104467232125628,3.2301441544265908
63.24324324324325,4.358065167879827,3.5044679111359116,2.7528597445484912
63.42342342342342,3.7803966819787886,3.000881468728656,2.3732171065096885
63.6036036036036,3.516994997508288,3.6319500898523414,2.838771357064532
63.78378378378378,3.842136797609633,2.968388539961501,3.1602303772741966
63.96396396396396,3.6433980215803623,3.5765883657579822,3.260171415101759
64.14414414414415,3.713739179800209,3.1639261732697666,3.0045029860107393
64.32432432432432,3.505875566734686,3.7634685251411866,3.1904322876340125
64.5045045045045,3.7477712612825727,4.029467925432909,2.654049501506633
64.68468468468468,3.4420171990651376,3.7975072537169003,3.0767495353759418
64.86486486486486,3.1830184158272066,3.4694563657692448,3.294787250342986
65.04504504504504,3.0281268902915106,3.261839504741882,4.344752655705183
65.22522522522523,4.040517665965494,3.130983340329962,3.108791444421236
65.4054054054054,3.736744721362126,3.7617940985153306,3.293475209660023
65.58558558558559,3.816210416938579,3.692499889395859,3.400692392203774
65.76576576576576,4.011609624687661,3.7003793436212513,3.67809203793509
65.94594594594595,3.7335180971788904,3.2762326294253854,3.038488554435767
66.12612612612612,3.5739089217810514,2.974046724067378,3.185750706649403
66.30630630630631,3.4884032410324806,2.5948418432748013,3.2256793397792705
66.48648648648648,3.0560847534053197,4.555299573948189,3.3989800333861373
66.66666666666666,3.7178307060086775,3.2986338009497937,2.903611297656773
66.84684684684684,3.789153614488162,3.9248859264187628,3.178408303217052
67.02702702702703,3.707041860032063,3.5812006159756176,3.01596226891476
67.2072072072072,3.711545192514946,3.166300671947286,2.86598602265937
67.38738738738739,4.184484301444488,3.6192447162584505,2.940298561262003
67.56756756756756,4.488205364204042,2.9828591367742208,3.246412738234788
67.74774774774775,5.334227584956322,3.374519603911449,3.575526181778565
67.92792792792793,7.116159615574187,3.4682748521134723,2.9725860431231528
68.10810810810811,13.611269091146287,3.5789311719068704,3.622221488564876
68.28828828828829,18.61619634718102,3.1999038368414867,3.5955448710409894
68.46846846846846,26.646906282741547,3.8388996080143407,3.565425608477964
68.64864864864865,30.227649561054577,3.970854504493663,3.6304545932529426
68.82882882882883,23.72042969842652,4.877214323255385,3.2785412500631703
69.009009009009,12.395258652008462,5.751676380028533,3.4416316769370034
69.1891891891892,7.88080443073389,8.84295247740999,3.336919135618995
69.36936936936937,5.640715574012759,12.05581507622111,3.410194228329038
69.54954954954955,4.559353035215371,21.45056999762579,3.359503281178193
69.72972972972973,4.4183374467136485,29.073880437794752,2.909814134158453
69.90990990990991,4.195574081554576,25.09826411126773,3.084311943863447
70.09009009009009,3.8799551822462877,19.452500005166247,3.00246058636586
70.27027027027026,3.281685377105013,9.35474865969877,3.2347887805098337
70.45045045045045,3.839008092670529,6.981858805801915,3.299387208860363
70.63063063063063,3.917337247575474,4.373900654352933,3.3086971964766443
70.8108108108108,3.7534886785113772,4.861949157691909,4.127869970119269
70.990990990991,3.4255490726315427,3.9850547200432254,3.5766932629235
71.17117117117118,3.3591371656707403,4.08013183402699,2.841242580175475
71.35135135135135,3.404671043221402,4.284132385008637,3.368426122166823
71.53153153153153,4.022244396066177,3.636773326303393,3.426036936576829
71.71171171171171,3.4608976708165087,3.7735993309730835,4.059954682631645
71.89189189189189,3.3917936220719356,4.212154097688421,3.666075799341436
72.07207207207207,3.3573450723071914,3.3963638052376073,3.897730361052372
72.25225225225225,3.098149528295441,3.391300864024726,4.072914464916904
72.43243243243244,2.5195648966902215,3.5828624884250595,3.8576176230641908
72.61261261261261,3.432769921029381,3.3263887795260816,3.657616586105295
72.7927927927928,3.2140682290253264,3.538352346477521,3.3494538486389858
72.97297297297298,3.86361230542498,3.6826350450434235,3.4530809908162556
73.15315315315316,3.8190424303723463,3.0591486661277365,3.4566609197814984
73.33333333333333,3.6840699731745,3.6377330947153834,3.45696733714527
73.51351351351352,3.6326087603042754,3.0238825329868897,3.5403626200812486
73.69369369369369,3.254173403446761,3.623879158125945,4.331276294734833
73.87387387387388,3.3107307253947496,4.04268697281824,4.13569193036316
74.05405405405405,3.7155682355976545,3.722317990739553,5.150494958452771
74.23423423423424,3.5561731264592233,2.928588907966425,8.370565236289684
74.41441441441441,3.677550087520709,2.840711034500418,11.46524206862787
74.5945945945946,3.2973389907776838,3.421002785074925,16.675626306730404
74.77477477477478,3.3358819334587793,3.4665939493580247,17.90684638586641
74.95495495495496,4.150440283839388,3.4504831777120537,11.837304129482623
75.13513513513513,3.1047199708130613,3.182652425042106,8.45743744811543
75.31531531531532,3.8150733051174637,3.266084673864722,6.528515211977608
75.49549549549549,3.6319733693599687,4.126411734724777,4.613323690377741
75.67567567567568,3.216749706360002,3.3621804813115217,3.5588447233309926
75.85585585585585,3.7176538997279507,3.291161456091498,3.9562557906133993
76.03603603603604,3.4166178210419247,3.394828659607635,3.235951985125865
76.21621621621621,3.9607205759202473,3.622349873693618,4.076202735889545
76.3963963963964,3.2165311922551028,3.8612624069280277,3.6887099602464355
76.57657657657658,3.4163658666369625,3.306793594825927,3.8689012580564266
76.75675675675676,3.614361045684313,3.7530092510717834,3.6580915323009515
76.93693693693695,3.38057162534073,3.882686488615556,3.411173703319504
77.11711711711712,3.704152987807333,3.7427038763555855,4.226163468018603
77.29729729729729,3.172708479936751,3.9764873846388964,3.870104448564425
77.47747747747748,3.955919587802021,3.1983411762528675,3.417833284316
77.65765765765765,3.334404863616359,4.3512944467470795,3.077145602656061
77.83783783783784,3.89603530133832,3.7455101959544708,3.8891640785063903
78.01801801801801,3.94372529574767,3.497582966586532,3.698526078960788
78.1981981981982,3.3881634359820296,3.2850799909706194,3.4466065435674973
78.37837837837839,2.934452133414394,3.4832163959311293,3.769606708816333
78.55855855855856,3.84254075967683,3.5287823685491158,3.436417193806914
78.73873873873875,3.5443266316173156,3.269246018237771,3.5670113893499997
78.91891891891892,3.9352273942129257,3.3567270571565517,4.2499705946907484
79.09909909909909,3.4712112801252264,3.6224499380321733,4.181883866784898
79.27927927927928,3.46652220921231,3.8028794186708965,3.621428827123531
79.45945945945945,3.284255866688816,3.779794859931463,3.417474888546371
79.63963963963964,4.146788623019067,3.4931021017590176,3.0345403615615494
79.81981981981981,4.188352659209601,3.8250130258350463,3.831311913654616
80.0,4.533225578599639,3.2343440270460286,3.777651110755692
80.18018018018019,3.657216940929218,3.839394101356596,3.9176989015465757
80.36036036036036,5.120614315925729,3.692059043723493,2.99069261790262
80.54054054054055,6.442921056192272,3.472105203248171,3.389880129450005
80.72072072072072,8.950648665670977,3.8207390721508565,3.3929873130506816
80.9009009009009,15.018625541012256,3.325285913777714,2.9862641620236654
81.08108108108108,14.647156869308942,4.05641271324331,3.2628694556893687
81.26126126126125,14.348838912340753,4.214198551230833,4.112261329335398
81.44144144144144,12.047556815105079,3.6339010857088803,3.4608100712576766
81.62162162162161,7.7623940484266525,3.973703237887422,3.7559367585724477
81.8018018018018,6.040809778603652,3.6111059514080384,3.0362114671501352
81.98198198198199,4.690280291988041,5.072621326761672,3.7318814017502366
82.16216216216216,3.705547206175683,6.774117372277122,3.9489345597904935
82.34234234234235,4.697519216134803,8.757526569699628,3.0813756433902126
82.52252252252252,4.49722403352909,17.537422970427546,3.6196457032034637
82.70270270270271,3.455105646135061,18.204554976412087,3.7895209325960737
82.88288288288288,4.086359795373926,14.615903159869633,3.293309895655904
83.06306306306305,3.761448867477471,8.959251880380116,3.4591926800154895
83.24324324324324,3.5405455480501073,7.622367896482466,2.9794487407261836
83.42342342342342,3.998004722768349,4.471572020687912,3.6126925245557215
83.6036036036036,3.2776864473901797,4.332900666442977,3.4552756697205598
83.78378378378379,4.73771786555102,3.9824054309303856,3.5492819174755237
83.96396396396396,3.4921878152063353,4.13187526326152,3.9037827699970085
84.14414414414415,4.367218637373724,3.866177276395799,3.708110788117128
84.32432432432432,3.7870866238990533,3.325397954360243,3.902313115739717
84.50450450450451,4.180387615132486,4.326048701853398,3.7316484180680534
84.68468468468468,4.673317658866554,3.338855458291193,3.7984951247497976
84.86486486486486,4.29633136368056,4.3604560221574795,4.03700452264983
85.04504504504504,4.082708928626392,3.633795063591431,3.674203612468266
85.22522522522522,3.833884332711185,3.3181551459716006,3.743751609262794
85.4054054054054,4.48828737387205,4.117089527187207,3.02086486592834
85.58558558558559,4.481545680096219,4.102599515579656,3.42300368334805
85.76576576576576,4.590738490885449,4.01770713615895,4.191767164818094
85.94594594594595,5.0178293443681765,3.2938011965029577,3.6036790336752085
86.12612612612612,5.009180683738287,3.7787235744315284,3.453801327004642
86.30630630630631,5.746553317536056,4.298202646359223,3.17144968753272
86.48648648648648,6.6097367819286665,3.767850614184292,3.0697719286808374
86.66666666666666,10.710647638682099,3.730893955338719,3.886876967266737
86.84684684684684,17.83833759245682,4.067846473823875,3.9818065942995418
87.02702702702702,31.43267939430162,3.7924365303335716,4.344197401180818
87.2072072072072,41.674235756800385,3.1634263076769713,2.980762655456254
87.38738738738739,33.11480860366373,3.84990385655802,3.9512564167017294
87.56756756756758,22.54074828954521,4.051781445041726,3.5612893738166935
87.74774774774775,14.79816300197422,3.8216152759678907,4.1207164476611915
87.92792792792793,8.837813806000895,3.1880930537085463,3.0962019210558163
88.10810810810811,5.355713573756064,3.935787986510899,3.2235785605219403
88.28828828828829,4.7938268229781995,4.2697390938624205,3.2988870056477855
88.46846846846847,5.4518649196889495,3.27775007901988,3.736646193330517
88.64864864864865,4.2001989132518105,3.7534590689261633,4.323576719221915
88.82882882882882,4.875526850845018,3.0023127641504113,3.825235395557933
89.009009009009,3.57681084280379,4.290260791142157,4.194749488393022
89.1891891891892,4.603994826214428,2.9403581643428027,4.168061586541014
89.36936936936938,4.276197863898509,3.4318604973763702,5.172572165349935
89.54954954954955,3.0624909829600604,3.963113107484202,4.287632506056964
89.72972972972973,3.728913640082014,3.755287863360865,5.174905142147887
89.90990990990991,4.844350025362576,4.063517112577018,7.0212067960207865
90.0900900900901,3.9866829222342477,3.9200089183204407,9.179640100941986
90.27027027027027,3.113850859307733,3.7130790019538447,15.80785205034292
90.45045045045045,3.9850572980918746,4.289817293624124,23.175443317827277
90.63063063063062,3.7073888399595125,3.814452382702826,26.488754688148937
90.8108108108108,4.303505161545841,3.622152902399613,25.233344260782047
90.990990990991,4.642319386484076,3.869174285054838,17.978839971589927
91.17117117117118,3.6795776064079173,4.263955737614862,13.002729665782752
91.35135135135135,3.754386719934531,3.617810970567522,7.956006162062015
91.53153153153153,3.9247744155741477,3.730866258596623,5.6559025444580024
91.7117117117117,4.3204320352365215,4.235199591468141,5.5408729562555195
91.8918918918919,5.047308250359508,3.2802256958693694,4.101930798728343
92.07207207207207,4.095219697968032,3.9414722449740136,4.26294571101174
92.25225225225225,4.457773692043758,4.279615635201654,4.196879285507939
92.43243243243242,5.769217762038504,3.9042070323482747,4.70390893113291
92.61261261261261,7.617223267190925,3.454397212631763,3.937069371311123
92.7927927927928,11.941671082642069,4.137065005340116,4.2263236282499825
92.97297297297298,17.89550050778592,3.4528752142892594,4.346755903615395
93.15315315315316,25.560358497622133,4.58818256977086,3.6007056757303
93.33333333333333,25.316464134499977,3.785751610778322,4.168517700555923
93.5135135135135,23.155345564654244,4.157638065963469,3.821717944924419
93.6936936936937,17.737769026400507,4.647264304709908,3.1911517690042914
93.87387387387388,10.625675493171542,4.487761109734584,4.536476450809258
94.05405405405405,7.332138242954805,4.5196060639723665,3.6319316380873925
94.23423423423422,4.764887138437602,4.905923262515682,4.513529956088255
94.41441441441441,5.6370306913763875,4.608218916321648,4.01974901703917
94.5945945945946,4.673714767547206,8.240348261651556,3.7700062571083532
94.77477477477478,4.500166599179561,13.466738296615393,3.9136524396239927
94.95495495495496,3.628853618750774,19.19430892077256,4.039704745010146
95.13513513513513,3.566759387377915,25.227940565614468,4.644763247788884
95.3153153153153,4.0792102549811045,28.377066160945997,5.7254264082370385
95.4954954954955,4.199745164774192,16.72909222050815,6.428728938377068
95.67567567567568,4.5374192938133415,13.911425935326843,6.929163672426359
95.85585585585585,4.117645387794008,8.439628023643229,10.114797240472782
96.03603603603602,3.9021376041204516,7.167134759537267,11.9355075230569
96.21621621621622,3.105151139312946,5.296492582607753,9.655792297899964
96.3963963963964,3.884392020704568,4.139270526148961,7.378435075771464
96.57657657657658,3.7630057386839533,4.5740732472892605,6.495176738287461
96.75675675675676,4.145951256197733,4.501124099029128,4.57581721969657
96.93693693693693,4.212284778003044,4.116507349194106,4.030110223309539
97.11711711711713,4.080110269324745,5.1299486315773715,3.721369321094727
97.2972972972973,5.151025238689794,3.7517212076684796,4.688411598318032
97.47747747747748,4.674461353923783,3.5015479655926214,4.026537886315431
97.65765765765765,4.218607708181146,3.6541324302231266,3.1585145975946327
97.83783783783782,4.243502843489939,3.714907232591,3.927145410709825
98.01801801801803,4.68813420797406,3.882897688125134,4.262745860505726
98.1981981981982,5.27912505891001,3.500746122152716,4.383538820248092
98.37837837837839,6.016034845121423,3.6879009503591367,3.42744158505802
98.55855855855856,6.371853445238297,4.208168241152732,4.064740615468324
98.73873873873873,9.195975952491512,3.996937226594017,4.301419625283165
98.91891891891893,13.862440435656,3.985404611564551,3.429853160104382
99.0990990990991,19.397212225320096,3.8820098132968934,3.515286575191655
99.27927927927928,21.799669646767367,3.852486413520891,3.502827431856153
99.45945945945945,26.173036696156043,5.150228209419725,3.8199880824159136
99.63963963963963,26.3155141724699,4.167936507383166,4.111313604659761
99.81981981981983,13.478268707801709,2.8089362573811405,3.738426198433386
100.0,11.230779253070878,3.5612900248271235,3.2645356989507026
100.18018018018019,7.48593536394869,4.415260717223447,3.8454083983253975
100.36036036036036,5.470081614801533,4.113914733991863,4.232163002717007
100.54054054054053,5.300481670819434,4.299314904004828,3.674564782120226
100.72072072072073,4.827125086342422,3.9013258488223648,4.773965716659169
100.90090090090091,4.406844077370566,4.061176313308261,3.9003108829203894
101.08108108108108,4.832139115047707,4.574162042693518,3.5736450795423678
101.26126126126125,4.201187998942238,4.102042415679265,3.6313045059523588
101.44144144144143,3.946236306620919,3.762601976683534,4.076344391994487
101.62162162162163,4.38675271668633,3.65620255095991,3.300493714876605
101.8018018018018,4.720075526659441,2.9714531085518847,3.7034146349326926
101.98198198198199,4.166862779570927,3.6952220136684892,3.4728678301649816
102.16216216216216,4.113601105433372,3.6346190760855666,3.974619113351082
102.34234234234233,4.419389922840603,4.405516117004155,3.7944041805318207
102.52252252252254,4.527231783545607,4.524184562451822,3.92668694100065
102.70270270270271,3.839485849660571,4.023435345175919,3.9091040976151525
102.88288288288288,4.402750891771741,4.496503804089932,4.046503045289882
103.06306306306305,3.702861296060751,4.40852044946194,3.6644131802947757
103.24324324324323,4.029025218406335,3.6037521491021254,3.5953435137878587
103.42342342342343,4.383286246637678,4.234733033863942,4.4971377394489975
103.6036036036036,4.903421950823114,3.9747083808377153,3.86746917546751
103.78378378378379,3.5392774744152558,4.2060767553320195,3.4590170606483808
103.96396396396396,3.7542485030430557,3.605795512303838,3.7092604088250165
104.14414414414414,3.733221270124697,2.9353589739309456,3.922931554520711
104.32432432432434,4.043878681958081,4.001866980361823,4.341189691313586
104.50450450450451,4.739927939749686,3.610580025307054,3.5167657389859386
104.68468468468468,5.179094377767735,4.162354411301052,3.4686250912988648
104.86486486486486,5.5640455671009414,3.718554847791655,3.8248130071123274
105.04504504504503,6.141618456800488,4.016697304221072,3.7537068669530904
105.22522522522523,5.698327369793173,4.293443024951161,4.1018023194924895
105.4054054054054,9.003492391566622,3.682888732424155,4.245934029128489
105.58558558558559,11.37630242536121,4.2040261168611615,4.517876278495602
105.76576576576576,11.076444906436835,3.9793087262629707,3.72177523389387
105.94594594594594,9.642840597495848,4.538387395733584,4.132564482728979
106.12612612612614,7.748680585104942,3.8284661129980693,3.254843417450488
106.30630630630631,5.406500275280148,3.955587341547094,3.7924142295013916
106.48648648648648,4.48740182103586,3.835967988624786,3.2409994399414117
106.66666666666666,4.706545998283726,4.159210944872516,3.8083920344764945
106.84684684684683,5.022796248296695,4.730265202946509,3.436977442427368
107.02702702702703,4.864563929754342,5.244231560787938,2.9632747119232046
107.2072072072072,4.55753046909495,5.163953301010677,3.219246229087884
107.38738738738739,3.522776398660209,6.913567486489042,3.525893122640754
107.56756756756756,3.978378871631368,8.654186527368026,3.674384658282174
107.74774774774775,4.346260035393523,9.83410341482467,3.941216058108804
107.92792792792794,4.439645492725079,11.477185116576118,3.6592540607531583
108.10810810810811,3.7698829123283217,10.207194940642841,3.63870821967751
108.28828828828829,4.381959995736144,7.339278416468131,3.6709633518661375
108.46846846846846,4.404551484759295,7.119458135133291,3.847535446583129
108.64864864864866,4.412883516130805,6.262425110410676,4.130075419704684
108.82882882882883,4.515079636098061,4.89605626557359,4.173968989227789
109.009009009009,3.6683768332220197,4.998053328675106,4.042790966141851
109.1891891891892,4.512180629710141,4.283629235457492,2.6536479298245896
109.36936936936937,4.802610050344564,3.671416084132913,4.147699896607296
109.54954954954955,4.531614850857459,4.21058767284682,4.297067345187344
109.72972972972974,4.04971855521005,3.563362588971426,3.7199506912317744
109.90990990990991,4.2191726045665,3.7625159582982945,4.192337827799264
110.09009009009009,3.431210484260032,3.653044732636421,4.0714150099361115
110.27027027027026,4.5620669276160815,4.427059085654618,3.820857317660377
110.45045045045046,4.081402965359288,4.235652812708034,3.8977036728511956
110.63063063063063,4.593831572907185,4.3223004686576285,4.062531483561805
110.8108108108108,5.44739825849187,3.5551331904775507,4.396090041216321
110.990990990991,5.789003401372101,3.925324405178446,4.230074504595387
111.17117117117117,7.504703571577788,3.9834443690910675,4.156144474400457
111.35135135135135,8.492544921930696,3.399524003589307,3.941277788308257
111.53153153153154,13.195684418728991,3.071194164322203,3.6657194304131213
111.71171171171171,17.115967978092574,3.430615948397019,3.431841015371822
111.89189189189189,24.159352952241946,4.655188496145572,3.8278205758470913
112.07207207207206,23.98439623046118,3.8915183440756187,3.7759614446278826
112.25225225225226,21.50507375552028,3.6493731052680722,3.6912895312901886
112.43243243243244,14.10373652291938,4.663222090424975,3.6156873779923075
112.61261261261261,12.621479134675289,3.5465787814911223,3.733904721626874
112.7927927927928,7.868121012638942,4.330478078761525,3.5388998903123863
112.97297297297297,6.52946441887828,3.5286608368411616,4.307498495547713
113.15315315315316,6.047935311381705,3.9736328943024626,4.174425340547972
113.33333333333334,5.00869206978727,4.4859669857063444,3.9012593719257644
113.51351351351352,4.94293360185546,4.375007073682321,4.002355681021312
113.69369369369369,5.3417370890827875,3.0659776727697805,4.086851520309075
113.87387387387386,4.361869390702806,4.441228391412579,3.8260152438663995
114.05405405405406,3.731889573546469,3.656828483196563,3.9062958444433504
114.23423423423424,3.8362954374756355,4.178624533950381,3.886968474901127
114.41441441441441,4.638932256129921,4.156734082053838,4.177273722972308
114.5945945945946,4.607352586331553,4.01861059573598,3.9322573193012715
114.77477477477477,3.857729373397509,3.4259992905235768,3.589010622564163
114.95495495495496,4.188430863142413,4.018271555234488,4.738447913439278
115.13513513513514,3.531939068902736,4.6501971436312175,4.28769092143033
115.31531531531532,4.053879726084208,3.89928055968081,3.663640799735626
115.49549549549549,3.4810847632370163,4.74445094388862,3.387885687957314
115.67567567567566,4.302039176019556,4.479662493230217,3.135949478875866
115.85585585585586,4.751020210506646,4.016977587316078,3.961874792887565
116.03603603603604,4.493234926701702,3.7930305686956385,3.5567634429257176
116.21621621621621,4.003643195723461,3.9574501094078336,3.921680901483067
116.3963963963964,3.8299199762837106,4.216293363139579,3.798926129450734
116.57657657657657,4.6547784749103736,3.5759564978631877,4.286776901646481
116.75675675675676,4.368548296114764,4.151727765650561,4.31382778162193
116.93693693693695,4.487077773863909,4.430957596967349,4.5261175191465055
117.11711711711712,6.245051291489005,4.020990302608837,4.2474333383093565
117.29729729729729,6.057575710075613,4.1900585593170865,5.253296089595282
117.47747747747746,5.643677629758417,4.4478467445140835,6.292412449347073
117.65765765765767,8.214866362475535,4.367948195553218,6.034978061816523
117.83783783783784,11.263618862138786,4.285141087328861,6.865225441682957
118.01801801801801,15.952748204498878,4.29893604856192,6.880927718133048
118.1981981981982,25.58924933748373,4.8989436813358695,9.403416509054916
118.37837837837839,27.01190044962033,4.415152933582645,7.967644116945644
118.55855855855856,35.7158357155753,3.4776634344287416,6.238128179810932
118.73873873873875,36.36209972610324,4.524399326019514,5.804317266055658
118.91891891891892,36.83046974250463,4.670024840682381,5.131109226111874
119.09909909909909,30.63498903943964,4.268381937772225,4.129552651115183
119.2792792792793,23.585548578853597,5.071297703698237,3.7167651074716304
119.45945945945947,15.819626655061102,5.6003616020751545,4.951874012138363
119.63963963963964,11.378546451868669,4.86032374387181,4.45856303718524
119.81981981981981,7.983775742973858,4.657492369334759,4.6566681292660155
120.0,7.041399196489308,4.219259064961513,3.6478023923171885
120.18018018018019,4.4592397627326585,5.1597076111634825,3.5946541462612718
120.36036036036036,5.131510256801454,5.167626941797012,4.514588051736689
120.54054054054055,3.930503512672759,6.026451733683793,4.3705205750816205
120.72072072072072,4.720668407689217,9.470634152727218,3.7624077633145614
120.9009009009009,5.131726647125777,10.49077422684653,4.379813622797164
121.0810810810811,4.361854587620203,15.821057547874128,3.557819324317143
121.26126126126127,4.912596651859943,19.39100503650847,3.8848494844129515
121.44144144144144,4.610511258595772,33.73754231018788,4.20872767516725
121.62162162162161,4.316127262778477,39.56366062391678,4.0262306447561755
121.8018018018018,4.758508205423096,42.68292120230015,4.511904372841625
121.98198198198199,4.557893259405206,38.47037962614459,3.890955468578374
122.16216216216216,4.624243604017874,30.35055626726846,3.789118391983628
122.34234234234235,3.82076182134091,22.796720049458337,4.428016951458198
122.52252252252252,4.013544859992314,15.77647406483366,3.920243243634138
122.7027027027027,4.211130043429642,12.3756051310357,4.377571756221418
122.8828828828829,4.366375893374861,9.305879140130642,3.46546504455248
123.06306306306307,4.122926026963504,7.897532679499145,3.7487220418429645
123.24324324324324,3.848364421856503,6.444720020217898,4.0902761941089
123.42342342342342,4.440501887065625,4.8474728382974925,3.660479826768816
123.6036036036036,4.007988038884558,5.373891547130548,3.98773268781058
123.78378378378379,3.435576460352894,5.744881562214747,4.1945414374993275
123.96396396396396,4.215750365242378,4.200864575736882,4.283886680510496
124.14414414414415,3.6143435899927363,5.398990459188318,3.847655263634527
124.32432432432432,4.314944950274305,4.558693999674775,3.7101742899555
124.5045045045045,4.237478440056109,3.995543283314883,3.458687054381283
124.6846846846847,4.441555904175488,4.669336696988025,4.2263502286722225
124.86486486486487,3.8863339607589875,4.492538019558033,4.122288202176451
125.04504504504504,3.6961701906761792,4.099487866414711,4.414760032190659
125.22522522522522,3.7659314140664617,3.925233442946795,3.7624591691880083
125.4054054054054,3.587748543443777,4.48898094162957,3.863682335760212
125.58558558558559,4.809833854909968,4.71288590872355,3.3871164257765023
125.76576576576576,3.8855587596068886,3.6870118763836666,3.8735830412022536
125.94594594594595,4.084897224438888,3.9072283913287644,4.398052150570127
126.12612612612612,4.158413970466341,4.244788602912056,4.723691644970559
126.3063063063063,4.339398813698511,4.507633327692808,3.6259833948360325
126.4864864864865,4.027481285189042,4.085414945786244,4.272796814593197
126.66666666666667,3.900729192370784,4.396216835376003,4.070882289354143
126.84684684684684,3.20370291949813,3.781221061174456,3.6184701027416453
127.02702702702702,4.468635701419148,3.909802693703993,4.156272147912516
127.2072072072072,4.262331611015085,4.678204148793438,4.2083782903154106
127.38738738738739,4.3757467415266955,3.767806183380685,4.094927625034963
127.56756756756756,3.5112414984212545,4.0938931775325935,4.390403699597452
127.74774774774775,4.619461424919218,3.817565461561157,4.637872777305119
127.92792792792793,4.11843083943762,3.558521927087669,4.143267045945426
128.1081081081081,4.892148678125583,4.503081441662623,4.143375999141178
128.2882882882883,3.7387716741048944,4.130399493421387,3.141730922701189
128.46846846846847,3.9655037609757646,4.368563807455506,3.6789766673086692
128.64864864864865,3.946902525716531,3.7811682805951286,3.6832929348855847
128.82882882882882,4.20941255433522,4.039756037224061,3.047340635164728
129.009009009009,4.569585284684543,3.940642519981346,4.520605339888332
129.1891891891892,4.316829185453352,4.407487770493905,3.62582888005173
129.36936936936937,3.988571938399322,3.837968131083867,3.3708686314364265
129.54954954954954,3.360062344291278,4.0799603726559575,3.9847144977721283
129.7297297297297,4.303099547943007,3.8304591777385952,4.209933754062062
129.9099099099099,4.109939299848071,3.9998603539798587,4.512357832113426
130.0900900900901,3.8694775533557206,4.257697811258053,4.600062823855995
130.27027027027026,4.217308429585437,3.623027003434569,3.6120843485848555
130.45045045045046,3.958433769261357,3.321955576987042,4.356166215753168
130.63063063063063,4.162712974866654,4.457960496793924,3.3541217056429695
130.8108108108108,4.49783305620101,3.8865325181436585,4.100167364172121
130.990990990991,4.154176483501796,3.917910108665715,4.691989543143254
131.17117117117118,3.9668716893049343,3.939115070129329,3.9930366043586325
131.35135135135135,2.9700812399121475,3.5406766538594336,4.521943171545756
131.53153153153153,3.7479948282538493,3.874638364857067,3.749548555039619
131.71171171171173,4.411610049698333,3.9947421819232853,3.484818238830068
131.8918918918919,4.6386516385986205,3.5042681234061837,3.8120517408701007
132.07207207207207,4.844865475795708,3.4347438540824617,4.009975022333173
132.25225225225225,4.592172156062376,4.735338898011992,4.247329804016422
132.43243243243242,4.461585016311903,3.568714385564853,3.9916595757916378
132.61261261261262,4.772837727606918,4.286463120745675,3.9372188399146926
132.7927927927928,4.761565554145821,4.217394780152892,3.668290396927829
132.97297297297297,5.629619679331468,3.7953887638987847,3.817268688979732
133.15315315315314,5.7802077853110525,4.250360692918186,4.41753948206674
133.33333333333331,6.166229337229319,4.800102474712387,3.6500728377650913
133.51351351351352,8.656360937902857,3.7817485076036546,4.732251727412377
133.6936936936937,7.640315451246175,4.53801150835429,4.725467243572492
133.87387387387386,7.609761478596625,3.6790816718121255,3.963766112969094
134.05405405405406,7.692912513390768,3.8174151686419013,3.462215740949531
134.23423423423424,6.144949449306199,3.6454240618569616,4.3868006694898565
134.4144144144144,7.131453718680596,4.776879518672088,4.777367176117765
134.5945945945946,5.858754922428533,3.5798671813335656,3.444600049628927
134.77477477477478,4.607926838325515,3.9026484900452094,4.266163962459896
134.95495495495496,5.186497570403027,4.005167160839857,4.210395457046293
135.13513513513513,4.130318704569593,4.244657334749519,4.2913322423539455
135.31531531531533,4.257230572229542,3.753534418399239,4.39066159147036
135.4954954954955,4.36513333746143,4.2071452150852515,4.427083220669416
135.67567567567568,4.340429357707844,3.7010631185904144,4.7558516996105515
135.85585585585585,4.001877625994361,3.3249820287400156,4.889106893185028
136.03603603603602,3.649234648012192,4.815819382260392,4.3883645142348024
136.21621621621622,3.769369252013145,4.097483047071261,3.8048180308728314
136.3963963963964,4.270866824531173,4.657588623399359,4.458504015210951
136.57657657657657,4.281137218157159,4.530102538300046,4.211784811400237
136.75675675675674,4.1202421714651924,5.051333089359746,5.100636796603744
136.93693693693692,4.116414085057661,4.210781651317762,5.203428139495439
137.11711711711712,4.313473728904334,5.140801565787594,6.125264244379315
137.2972972972973,4.125115565720768,5.110754035375913,7.46972817427278
137.47747747747746,4.117318353286402,5.77651852078619,8.15620055237791
137.65765765765767,4.075515890462189,5.65580282561611,10.994858817477294
137.83783783783784,4.610555268018284,7.400573604672125,11.185933095185906
138.018018018018,4.335145629865098,6.1731260510679995,14.985490274179346
138.1981981981982,4.136558683317207,7.201218872664086,14.87960165363969
138.3783783783784,4.553347366898346,6.5745741554365145,15.6930321385637
138.55855855855856,5.841099360482318,7.7995125499766775,16.444194036775894
138.73873873873873,4.173438751596429,5.471374991058488,15.029169845830006
138.91891891891893,4.179643052418436,5.85617660075757,12.096230227599637
139.0990990990991,4.215470356942367,5.428986478567569,9.271461103943794
139.27927927927928,4.647574892767276,5.009624101213459,9.347198428173106
139.45945945945945,4.352574762547872,4.441307335967041,8.717587255937602
139.63963963963963,4.8787426020378275,4.257737293754238,5.703233180573312
139.81981981981983,4.450594295839617,4.014885746382367,6.9013945714873675
140.0,4.648151244174561,4.112312900765236,4.979823130760013
140.18018018018017,5.0057445613932305,5.0831134530670665,5.506058659423249
140.36036036036035,4.7136577155694805,5.094214455181345,5.165514785699818
140.54054054054052,4.475483169237357,4.676843514816013,4.269636851741671
140.72072072072072,5.40320440198827,4.821445375971836,4.271581573303757
140.9009009009009,5.268373816697807,4.224274040286959,4.515510874767758
141.08108108108107,6.29266582177401,4.256722590175118,3.7148994453771667
141.26126126126127,6.633340996040255,4.052589472960467,4.714764673786114
141.44144144144144,7.6039798822927445,3.6849064561302765,4.336488512854495
141.6216216216216,8.437189198140576,4.524321816474114,4.6009991111958115
141.80180180180182,9.553793312968926,4.542079953995447,4.705097611113222
141.981981981982,12.254036408324353,4.306386332087981,3.7493114834329564
142.16216216216216,15.37946481183284,3.091728610405618,4.613256952096811
142.34234234234236,23.675352539021365,4.593222461676397,5.263136338993202
142.52252252252254,22.270612888070936,4.864097603279916,3.985043530574144
142.7027027027027,28.316517936274487,4.395490060487547,4.733207686858301
142.88288288288288,25.375044415813385,4.352953479760351,4.682483614108205
143.06306306306305,28.435770931139515,4.094219320094321,4.325601960762716
143.24324324324326,26.70208198201249,3.8369872604068807,4.8546602637779
143.42342342342343,23.86824119024915,3.9844990844621453,4.612974706067348
143.6036036036036,17.430997610319476,4.021099438950765,4.838944590660069
143.78378378378378,13.266060838454825,3.888927572467192,4.6505009152025245
143.96396396396395,12.919193742935311,4.0744080361739,4.7141763189580255
144.14414414414415,10.478199622347258,3.9509227229298833,4.517421066208601
144.32432432432432,7.384506838385492,3.470201895708064,5.061381031636813
144.5045045045045,6.237108302803824,4.339983321034558,4.099673128226205
144.68468468468467,6.638245466404917,3.829703896201287,4.059122827231382
144.86486486486487,6.684783835122871,3.3994321251958866,5.784172561567563
145.04504504504504,5.101909411240708,3.605486320766185,4.925755068103437
145.22522522522522,6.077090194906384,4.364428337220217,5.136672213886821
145.40540540540542,4.9219791979137195,4.768866424142939,6.038177127966302
145.5855855855856,5.681319172243772,4.642267929783417,5.6822768866245665
145.76576576576576,5.165898133625136,4.828178981081361,6.369908657317052
145.94594594594597,4.936561286952866,3.4779520365389236,6.4453772504555396
146.12612612612614,4.382385257057107,4.244861499930308,8.011061385097024
146.3063063063063,4.429940478487342,3.6528310091941156,10.96232384110117
146.48648648648648,4.685772729826438,4.016107954993436,11.561127846024883
146.66666666666666,4.9306499815317455,4.5757437111574655,12.089932581301953
146.84684684684686,4.659509560172412,4.151222048326213,13.936118133496581
147.02702702702703,4.616298304591139,4.7155512723544835,17.889375361796166
147.2072072072072,4.472793252814761,4.754428984267872,14.601356339746344
147.38738738738738,4.429016649769189,4.611146036147206,15.79239018994295
147.56756756756755,4.677603816226696,4.008398006194499,12.159248679662783
147.74774774774775,4.227809051184698,4.072607690005455,11.582943680773798
147.92792792792793,4.410253920810233,4.882588952160801,13.018204341109762
148.1081081081081,4.586036570852964,4.204529132036308,9.888393879610382
148.28828828828827,4.8043815795063685,3.962435646476421,7.837576441247889
148.46846846846847,3.9427625467548615,3.817788954372508,7.515215294114264
148.64864864864865,3.7051949061151284,3.6990407565900587,6.60011750582238
148.82882882882882,3.8888718819900467,3.599954246328843,5.126326729594971
149.00900900900902,5.0297628557560445,4.212283243104212,6.191813726704717
149.1891891891892,4.281198253854093,3.1806310006582903,4.12419777027977
149.36936936936937,4.452618221012511,3.7725990566711265,5.456522705837998
149.54954954954957,4.316068429055083,4.405273156802654,4.233547179601842
149.72972972972974,5.2695425597080545,3.7884261266403327,5.0628691693167305
149.9099099099099,4.42447603091971,5.130853022086272,4.383790122754198
150.0900900900901,4.2815625985551025,4.220610534584711,4.913796544775605
150.27027027027026,4.7100976668038825,4.626521400822842,4.927132750945236
150.45045045045046,4.30735709473772,4.456004291417141,4.059830481195067
150.63063063063063,3.5973129507604598,3.958672582052026,4.632921305638898
150.8108108108108,4.698462089301877,4.132675380605407,4.132553436388609
150.99099099099098,3.9997837682980437,3.741184875325058,4.345364807025393
151.17117117117115,4.379776091737405,3.6634625912689156,5.042257966776072
151.35135135135135,4.658010395848036,4.268561771107838,4.5838200913387075
151.53153153153153,4.718245401613659,3.932924483289775,3.2409260402188074
151.7117117117117,4.65413490279707,3.9858664089962876,3.8850758545258834
151.89189189189187,4.630943428039429,4.1343171061851445,4.475257639771931
152.07207207207207,5.33273895979672,4.432148546900743,4.150643712832443
152.25225225225225,5.075682997598397,4.19026126078743,4.7374224038327535
152.43243243243242,5.499002768267083,4.359359396043087,3.8212354695385513
152.61261261261262,4.909323686762988,3.703274039124427,3.545172312898468
152.7927927927928,7.295645692335549,3.9951653182882336,4.160027708132852
152.97297297297297,6.866207397759222,3.6639051517447596,4.632259923211957
153.15315315315317,6.553503025437078,3.9050962690477187,4.764154347064473
153.33333333333334,8.889074424270353,4.342886004993771,4.876335385196392
153.51351351351352,10.302780755084784,4.82573714388072,4.330750945095504
153.6936936936937,11.25353718252115,3.0874717796434115,4.2555730059118195
153.8738738738739,11.341335628863131,4.407276962600919,4.269517290056156
154.05405405405406,15.449866345565448,4.844070739506227,4.056996980879014
154.23423423423424,15.178978290363629,3.8353391240007304,5.427761033345075
154.4144144144144,14.857599102486079,4.621402128517085,3.781181957550455
154.59459459459458,19.191135878175796,4.477121265402466,4.000360833829514
154.77477477477478,15.257383836109534,4.877369328353768,3.9576615891689046
154.95495495495496,13.084831870613224,4.551232019923422,4.501231514011655
155.13513513513513,11.906600846757948,4.090903443157057,4.003745692326384
155.3153153153153,13.150611453848501,4.285594276348196,4.217161899914496
155.49549549549548,14.113535185350443,4.043072956397736,5.073854831107949
155.67567567567568,10.603319352077282,4.056672351049994,4.296670919985905
155.85585585585585,9.117533114047202,3.5333201680804,3.8953095429445344
156.03603603603602,10.018470723764452,3.4688133554933507,4.724845753312985
156.21621621621622,7.617014639336501,3.876784624981473,4.088458912225929
156.3963963963964,6.328242882420409,4.227200410920693,4.566926471832009
156.5765765765766,6.565196608936013,4.0895979144694,4.313969155403228
156.75675675675677,6.326604828887037,4.097289677556135,4.133155622677054
156.93693693693695,6.699215692228531,4.879423092187211,3.849985340111
157.11711711711712,5.969676172724874,3.7596854899922656,4.3262541510155055
157.2972972972973,4.909043120156428,4.211947252907123,3.6459073528973023
157.4774774774775,6.055801651501602,4.058262319895208,4.941903247585477
157.65765765765767,5.084293162734231,4.491495950481125,4.296951529322154
157.83783783783784,4.842700371402933,4.183198071602605,4.179644619695145
158.018018018018,4.368893885840596,4.356114914676868,4.064766035003692
158.19819819819818,3.5883327141520436,4.223028641676766,3.9532133492384944
158.3783783783784,4.67970793963614,5.092073348427528,4.278505796235243
158.55855855855856,5.259268444613872,4.548705921021256,3.8209476812302348
158.73873873873873,5.158922742092227,4.45937622035279,4.516644385186589
158.9189189189189,4.215817229730387,4.410771350968698,4.294806715246511
159.09909909909908,3.893872289607604,4.1915836711768915,4.424486952679756
159.27927927927928,4.817600424991859,3.9119054918436422,3.997699148880367
159.45945945945945,4.430842389480612,4.775146511262584,4.163342476105314
159.63963963963963,3.2832990942326927,4.968146253701827,3.645648490895505
159.81981981981983,4.914747111300971,5.198208967912165,4.3566173682428655
160.0,4.974314706712801,4.105284929869695,4.275486739916826
160.18018018018017,4.243408597644522,4.451140407753976,4.197136351438626
160.36036036036037,3.4630375925240298,5.1730257781760765,3.8933998288110843
160.54054054054055,4.533142605062576,4.874517536000864,3.7952479272395703
160.72072072072072,4.687450678786538,4.74967458719581,4.043096834481283
160.9009009009009,4.3133818105136985,4.508663813918382,4.354269244210909
161.0810810810811,4.885126347958688,4.560262067873911,3.7619649004108853
161.26126126126127,3.122152700607346,4.639571694544219,4.235561957136363
161.44144144144144,4.313768135206913,4.8938542118640855,4.6128287444122655
161.6216216216216,4.7985190401694044,5.642497055387908,4.106684158725387
161.8018018018018,4.220158577073399,5.706001474386674,3.8528232583579656
161.981981981982,4.285313058531121,7.553642498188927,3.3175359576236505
162.16216216216216,3.894107143046774,5.892169630878476,3.930604382452576
162.34234234234233,4.50830119800282,6.586617614518083,4.091826046078352
162.5225225225225,4.846843464963609,7.8868393260479985,3.9931521527248632
162.70270270270268,5.226848124003877,8.3682339349801,3.9779722765981957
162.88288288288288,4.628668899216767,8.902112798296576,4.441498767479417
163.06306306306305,4.991189871041146,8.77759873276338,3.85041182587207
163.24324324324323,4.84810420931264,8.761091450521192,3.820445093198829
163.42342342342343,4.688535598598008,10.7681454091245,4.151551878158619
163.6036036036036,3.717426936906448,11.213774207770513,3.780769378000295
163.7837837837838,4.707785382208892,11.478333084974155,4.565388878442204
163.96396396396398,4.401660930015243,10.996115855125025,3.6001094227544153
164.14414414414415,4.424897865165536,12.662848521118667,3.7168197642000496
164.32432432432432,3.973703749311713,12.107806598696733,3.983506370437453
164.50450450450452,3.7145727968880653,13.664383778202335,4.502828321662303
164.6846846846847,4.163036378836773,13.259057359147496,3.9275510617171676
164.86486486486487,3.906181035859376,12.161880594530238,4.556448280960694
165.04504504504504,3.896036416559056,12.288493295196348,4.181097869728341
165.22522522522522,4.548508895383088,11.734339632328025,3.6847164035688253
165.40540540540542,3.4912309436415248,9.40358931588497,5.053704401659383
165.5855855855856,4.360852334998291,9.289609117916262,4.2865005547809885
165.76576576576576,4.521754771524274,10.722955698762862,4.399215521789115
165.94594594594594,4.053547488695555,8.361118933174437,4.498779236703524
166.1261261261261,4.600563061640565,8.795138640156258,4.274047033114776
166.3063063063063,3.4462526091491545,8.290831038376133,4.264246357125837
166.48648648648648,3.5858903339987083,7.560917219396177,4.439954217648445
166.66666666666666,4.12071668232921,6.491630142143305,3.765847412149072
166.84684684684683,5.09714370493335,6.290166601122444,3.8737197367784635
167.02702702702703,4.424413303833177,6.533246989906834,4.5137820348784325
167.2072072072072,4.526279776326951,6.221496995142763,3.8960644149770984
167.38738738738738,3.939005049246022,6.080704623885103,3.5683751813092814
167.56756756756758,4.262240869642664,5.942539895938073,3.839863046602895
167.74774774774775,3.560288572721223,5.880675428399572,4.323665445449832
167.92792792792793,4.541659460208308,4.8630070532689045,3.70679204211954
168.10810810810813,4.583950539438322,5.331094632619141,4.233683598369396
168.2882882882883,3.7764792067826094,5.570485105787795,4.095397303462062
168.46846846846847,4.589080325200546,5.4070230298353525,4.494639334851094
168.64864864864865,3.7295926772751438,5.590446484245052,4.084819762116168
168.82882882882882,3.721740298380844,4.011705825194974,3.8681736152901665
169.00900900900902,3.726374988311724,5.226156817186774,4.312057808265409
169.1891891891892,4.21680217342591,5.346440784246861,4.414456713672156
169.36936936936937,3.7607527643175005,5.619028243631898,4.657430330813288
169.54954954954954,3.929521920379865,4.482511025393752,4.689857124454023
169.7297297297297,4.625829433355909,5.447954767133713,4.401687788848959
169.9099099099099,4.211066060245402,5.033077511326432,3.893516269655971
170.0900900900901,4.261205741678023,4.855369289850558,4.268693204082275
170.27027027027026,4.434299404985305,4.184866188432921,4.36150452959904
170.45045045045043,4.203524672821612,4.889108963097679,3.661369287509018
170.63063063063063,4.925832096184946,5.270163089912625,3.1462806526905354
170.8108108108108,4.229099381828596,3.470526507759265,4.023469356665417
170.990990990991,4.63835859993132,4.133932652559321,4.514706097605933
171.17117117117118,4.201546487244326,4.797939287876017,3.505374299895612
171.35135135135135,4.285756861274469,4.9985472358596565,4.135174949926689
171.53153153153153,4.0982047723940385,4.115691736438397,5.030107684078664
171.71171171171173,4.665094114666997,4.516597812438605,3.8977369311599808
171.8918918918919,4.378252068841523,3.5365756851805896,4.49915696556326
172.07207207207207,4.753695383483849,5.39341268344887,3.862072146800169
172.25225225225225,4.778935813449028,3.7922622919151103,3.986340264029879
172.43243243243242,4.2682348303117195,5.189328199467475,3.904892625548134
172.61261261261262,4.06187642132994,4.889132480258463,3.7151921701821786
172.7927927927928,3.316532006532794,4.598403138553838,3.910068530802255
172.97297297297297,3.703271115397204,4.752085640746714,3.6957468663108117
173.15315315315314,4.252109552427499,4.8654426382625315,4.979173799113597
173.33333333333331,4.772530004726148,4.5287053606822685,4.1912160412089845
173.51351351351352,4.115790096286238,4.956572516404942,3.6834590582050755
173.6936936936937,4.061191331573112,4.717471041218251,4.665682201884049
173.87387387387386,4.399570300678662,4.303825289738645,4.908588985068226
174.05405405405403,4.630276145672122,4.2207276641513065,4.653025964311809
174.23423423423424,4.432771956801848,4.0198159857438664,4.045676101066719
174.4144144144144,4.589736982608614,4.402259464367136,4.525276394141699
174.59459459459458,4.759316114060026,4.235189789432867,4.272068070100797
174.77477477477478,4.018330749030367,5.097668276692479,4.313809514
174.95495495495496,4.330406435843729,4.632978170461291,3.675800503111935
175.13513513513516,4.05355652902419,5.235478314149179,4.5004574719810115
175.31531531531533,3.6583882249340185,4.0378805649861125,4.735584826454852
175.4954954954955,4.652503545617708,3.6923544359310196,4.510690043494997
175.67567567567568,3.626321188904975,4.121704441965918,4.071355552886119
175.85585585585585,4.835801565168028,4.207616242346871,4.436944550449682
176.03603603603605,4.247186643845217,4.415918346969184,4.726496621257841
176.21621621621622,4.475755069122729,3.6633630892601095,4.197682706158235
176.3963963963964,3.5420638212806623,5.022074776278519,4.366734884421006
176.57657657657657,4.5624561216844155,4.2747620047783474,4.330093999748512
176.75675675675674,4.541212932866422,4.691836081023611,4.028412169055
176.93693693693695,3.565394967077449,4.804963418277742,4.489541849696562
177.11711711711712,3.7172457408913377,5.156360601654804,3.814978028402398
177.2972972972973,5.205785547480601,3.947855798489666,4.153449992816989
177.47747747747746,3.600332433766337,4.613581539943163,4.354101501292343
177.65765765765764,4.06621011337563,4.437038854821708,4.93237110149028
177.83783783783784,4.615651341420108,4.471124330262376,4.563502477275861
178.018018018018,4.64582772920729,5.1246032071458565,4.136814568831764
178.1981981981982,3.94397433108284,5.96674508501115,4.382900978009794
178.3783783783784,4.698167551908009,5.025636281072491,3.91185492777638
178.55855855855856,4.104273069571873,4.335434948238313,4.885431229377439
178.73873873873876,4.506977650020129,4.207974442903422,3.792686647097263
178.91891891891893,4.818683192426222,4.028208463943497,4.550432081433311
179.0990990990991,5.325699125205247,3.9728117177174496,4.31020522466563
179.27927927927928,5.131872899432884,5.168828024385293,4.3601282991822545
179.45945945945945,4.972351837779673,5.04163130096236,4.055649554848951
179.63963963963965,5.72119291731355,4.424254059627049,4.313269078203792
179.81981981981983,4.94889197493767,4.446089835451518,4.66252411458484
180.0,NaN,NaN,NaN
