2Î¸ (deg),Intensity (arb.),,
,Sample 1,Sample 2,Sample 3
0,1.93950687701493,2.13112426801675,2.27089305921414
0.18018018018018,2.15357202438177,2.16684996824138,2.17707604554206
0.36036036036036,1.54392024823397,1.99265205725323,2.1701222471083
0.540540540540541,1.91351967139346,1.99662612629666,1.80168221749349
0.720720720720721,2.02741396578816,1.76465083989053,1.67348272933607
0.900900900900901,2.14155736846086,2.15320037777538,2.17074957912349
1.08108108108108,2.03300626367908,2.25521297045059,1.90285700063635
1.26126126126126,1.8227631937926,2.13442140612308,2.14683017863266
1.44144144144144,2.06432803767865,1.80748723617359,2.25245302502089
1.62162162162162,2.2327250879743,2.1523951693603,1.88746912916435
1.8018018018018,1.95107336974034,1.70223022556182,2.15493102200967
1.98198198198198,1.60147102908827,2.05171087211879,1.92225741417848
2.16216216216216,2.17872008167382,1.77293566163405,2.02338042188649
2.34234234234234,1.8335063916576,1.92764957816067,2.01857245464041
2.52252252252252,1.77448630554294,2.43814701456951,1.74686136369177
2.7027027027027,2.21862985832836,2.20574142658271,2.03941344364567
2.88288288288288,2.47797326018695,2.19331303235146,2.18199327145766
3.06306306306306,2.00078660146324,2.1685764589313,2.07647097298466
3.24324324324324,2.0623617852485,1.97393182930134,2.0255015000145
3.42342342342342,1.96175535312238,2.18130545400098,1.84878610022889
3.6036036036036,2.20075639687157,2.1463063057382,2.22444253392443
3.78378378378378,1.81446676415311,1.986128642581,2.17424545056477
3.96396396396396,2.15438563253303,2.17942160440356,1.98637930337755
4.14414414414414,2.19598161227837,2.0787490847418,2.0772805392102
4.32432432432433,1.91182755403431,2.24118335748316,2.33958315676657
4.50450450450451,1.90108728407489,2.27490040237592,2.43988104017736
4.68468468468469,2.25290440576847,1.80261693628513,2.33207763557475
4.86486486486487,2.10839670781039,2.09403199770861,1.9558725893649
5.04504504504505,2.32491489507024,2.28435213656139,2.05398602029696
5.22522522522523,2.17433990286139,2.11897391295919,2.04657126838708
5.40540540540541,2.35391119893955,2.14824108253738,2.27618377685788
5.58558558558559,2.19260966482371,1.93180129667252,2.25517698841706
5.76576576576577,2.35530562097899,2.29932906516968,2.29938143696434
5.94594594594595,1.59288452321704,1.95940688832296,2.70264149046436
6.12612612612613,2.39225577721856,2.05906519230685,1.89175339270725
6.30630630630631,2.10605132773697,2.11492284970419,2.25807097723323
6.48648648648649,2.16639095034864,2.14460636838571,2.340555702842
6.66666666666667,1.9445771558771,1.94663913376193,2.25271471238816
6.84684684684685,2.01182361627013,2.07200438474221,2.49677314465046
7.02702702702703,2.24696729340875,2.05388741135416,2.27056751711062
7.20720720720721,1.93900986302131,2.29140899347747,2.18270713427799
7.38738738738739,2.61526744936999,2.00933619407702,1.91935647929338
7.56756756756757,2.18548951314587,2.19144459087248,2.05926986789129
7.74774774774775,2.39119068841637,2.16955284604174,2.00253547760294
7.92792792792793,1.95418320514722,2.73699747619925,2.41932620340365
8.10810810810811,1.79495641645177,2.17125804844684,2.1013886233739
8.28828828828829,2.21549359131322,1.99058729196716,2.52044021539578
8.46846846846847,2.25456782754119,2.37958711957928,2.23851472235397
8.64864864864865,2.38086341143196,2.29539811516764,1.97140068900503
8.82882882882883,2.23353855103192,2.32478921213678,2.07436574418305
9.00900900900901,2.316682741948,1.72640572246995,2.13024108250801
9.18918918918919,1.9786322396538,2.13755222694302,1.88892711271334
9.36936936936937,2.7909993797092,2.04917205707555,2.46306269042449
9.54954954954955,2.20288458685166,2.41338639921255,1.93353019158415
9.72972972972973,1.98473810117671,1.84633959486697,2.35513786902734
9.90990990990991,2.22331599603452,1.8309506047639,2.41727293394207
10.0900900900901,1.9515982472053,2.14313095364252,1.96467759891545
10.2702702702703,2.34395246337954,2.33274114965713,2.01121640015857
10.4504504504505,2.43528242088155,2.04091138229945,2.45804258369722
10.6306306306306,2.35919105977942,2.41970506690083,2.08767200587485
10.8108108108108,2.11555487453999,2.24518680088297,2.17139416821072
10.990990990991,2.11457322672296,2.27174275678433,2.68672795386585
11.1711711711712,1.73644500945986,1.78606279500725,2.15332222152361
11.3513513513514,2.34314452713436,2.41983986441954,2.48341918801484
11.5315315315315,2.52190752023763,2.0229105061472,2.48529725872337
11.7117117117117,2.03216281608839,2.64542649746463,2.27836095689627
11.8918918918919,2.33345250618754,1.91737831174504,2.33616097643736
12.0720720720721,2.48937848883435,2.23073307837042,2.30576170735821
12.2522522522523,2.1563444360644,2.21783111813471,2.31537604402127
12.4324324324324,2.21574307696321,2.33796587533377,2.09482114074437
12.6126126126126,2.58615100321205,2.36998163809889,2.34860809441184
12.7927927927928,2.41132607588304,2.16952030205112,2.45309559848709
12.972972972973,2.12041648217086,2.15346061966846,2.18741569163579
13.1531531531532,2.59578335401749,2.46661050730136,2.03127836631026
13.3333333333333,2.43778018809316,2.31464188475875,2.64360579025004
13.5135135135135,2.53982206317234,2.51357307958184,1.94911231486498
13.6936936936937,2.53447294520877,2.53344972243655,2.27404646101223
13.8738738738739,3.12337307373229,2.64004305528873,2.47375392804287
14.0540540540541,1.7062739415552,2.37088946290515,2.27971808709445
14.2342342342342,1.87009230919201,1.98057599859442,2.44957699938914
14.4144144144144,2.41262111560775,2.08899732159168,2.31507605981079
14.5945945945946,2.32090266206617,2.19587080580974,2.36960468003441
14.7747747747748,2.46524400941787,2.34019314718675,2.18737257074261
14.954954954955,2.57944595532896,2.41732548420877,2.46678104114629
15.1351351351351,2.27892120463369,2.09169108375906,2.12947614437542
15.3153153153153,2.12401991478948,2.70858773185926,2.29255523002541
15.4954954954955,2.60356006150959,2.19066833825483,2.35083320186114
15.6756756756757,2.61816914418923,2.65068282315526,2.28821349876166
15.8558558558559,2.35257965610856,2.10222068327222,3.04633970653585
16.036036036036,2.23123992336405,2.18743962723363,2.00454897977008
16.2162162162162,2.73522824959762,2.0764708843007,2.28662402302361
16.3963963963964,2.1298732197358,2.51700348972875,1.67915712700111
16.5765765765766,2.57508962354297,2.39976632005086,2.40506948352269
16.7567567567568,2.5622153625849,2.23488999929901,2.51199824020917
16.9369369369369,2.47075655064971,2.19461097093034,2.18845669156727
17.1171171171171,1.97141314842911,2.18659891197357,2.07778488409034
17.2972972972973,2.5500603539235,2.2261311139166,3.00654634779515
17.4774774774775,2.28855051954722,2.06210900763974,2.41958188728068
17.6576576576577,2.5818509275613,2.27829020331843,2.28393274729201
17.8378378378378,2.24510279504832,2.28133374953746,2.1575391179705
18.018018018018,2.54952476204179,2.1504625607002,2.54587252656438
18.1981981981982,2.58482646942147,2.50651853724789,2.1307633156515
18.3783783783784,2.45797418739809,2.45980807944876,2.59188514329295
18.5585585585586,2.24800713916904,2.45376532767285,2.28196255403722
18.7387387387387,2.29924033377828,2.23773781241941,2.58230200387093
18.9189189189189,2.88026071082647,2.39808496757145,2.2375237356372
19.0990990990991,2.73436931348758,2.55570575212142,2.73891429096141
19.2792792792793,2.33925650718032,2.35296335033412,2.54408381591594
19.4594594594595,2.52366469975544,2.51359315376871,2.34883584942217
19.6396396396396,2.43538792267638,2.41394729907747,2.35873205068301
19.8198198198198,2.34031612510534,2.29662330624762,2.66272420096498
20,2.65258099796146,2.45519352676434,2.57028125399901
20.1801801801802,2.69897109375831,2.84611746083716,2.51543687429166
20.3603603603604,2.02998011429022,2.56946997615267,2.52672297546263
20.5405405405405,2.5709486666297,2.66743871963586,2.57390473110374
20.7207207207207,2.55497754024227,2.68041830811885,2.89880921545074
20.9009009009009,2.44439043516486,2.98556242621604,2.36941749071614
21.0810810810811,2.88189025842648,2.74185497488143,2.57317127949228
21.2612612612613,2.29318939434197,2.7470808413789,2.44152118242594
21.4414414414414,2.46541370411184,2.57402582557016,2.79035920734493
21.6216216216216,2.36897785129859,2.28377219398635,2.50309707136414
21.8018018018018,2.60168067372091,2.0549803528415,2.66621318340291
21.981981981982,2.79990939710224,2.95194196291932,2.4324649303825
22.1621621621622,2.52052406189247,2.18381391817804,2.91904787401162
22.3423423423423,2.83458176202629,2.73984729432152,2.26552056237824
22.5225225225225,2.98199834416448,1.93126569062383,2.22813309008928
22.7027027027027,2.30550199600368,2.0446142005472,2.79479345499003
22.8828828828829,2.73828344402916,2.43760830723783,2.09155596352727
23.0630630630631,2.46301159172181,2.80057304018268,2.81732892345061
23.2432432432432,2.36838504069617,2.54573201305955,2.8278557517224
23.4234234234234,2.85325846117938,2.93267753425496,2.32167932034017
23.6036036036036,2.638170597616,2.46504199666227,2.50192350280472
23.7837837837838,2.61377160585414,2.50224088798105,2.64285141872893
23.963963963964,2.65087237369001,2.13878910684109,2.61431607732739
24.1441441441441,2.45020647474676,2.41886207158188,2.71047015541461
24.3243243243243,3.06774985172924,2.98591125993564,2.49217741644435
24.5045045045045,2.58836396694681,2.25092787580846,2.88456096054791
24.6846846846847,2.9609073837633,2.5742274818813,2.74402267197784
24.8648648648649,2.84258681370955,2.58605840882231,2.97892310526956
25.045045045045,2.63804530217886,2.77248290848085,2.64388802788017
25.2252252252252,2.64021428972248,2.28696117241331,2.63919214970211
25.4054054054054,2.47492337025773,2.02449601522672,2.63153511327276
25.5855855855856,2.207948950799,2.31497515998275,2.6239789190522
25.7657657657658,2.11336037639836,2.28792038524085,2.40530034822886
25.9459459459459,2.68004632996647,2.5474729709506,4.01111387502698
26.1261261261261,2.46627285841849,2.48977121600491,3.68136598311627
26.3063063063063,2.79975234508389,2.78529584681862,6.15359947710803
26.4864864864865,2.19889692946175,2.61601738197443,9.98983074403357
26.6666666666667,2.48134788327669,2.66240730815011,11.4091960200662
26.8468468468468,2.9452065808842,2.3240599723073,7.26656916784574
27.027027027027,2.92679419346734,2.57820047419878,4.67065020473723
27.2072072072072,2.47885354520842,2.65659060157489,3.34031392724611
27.3873873873874,2.46517739136962,2.38425446440434,3.07139320460226
27.5675675675676,2.36333537412132,2.38234306052882,3.13346600070297
27.7477477477478,2.72429283676003,2.33162033004535,2.80463627778512
27.9279279279279,2.86711164828364,2.25962518082871,2.76053211585889
28.1081081081081,2.58546319844582,2.2560682598759,2.92555413776571
28.2882882882883,2.68494988679978,2.32394923104384,2.91025771378045
28.4684684684685,3.05122367682522,2.25317286305433,2.91778171039563
28.6486486486487,2.85899985856966,2.56008545595035,2.78489174957042
28.8288288288288,2.7332812809794,2.32793934195106,2.77069936553307
29.009009009009,1.83131647877319,2.53332402034353,2.84114925307084
29.1891891891892,2.74829364660818,2.82405347960325,3.07574629987517
29.3693693693694,2.75433413761209,2.41866596032177,2.63274772488442
29.5495495495496,2.76522008011594,2.66901220797838,2.41831975882817
29.7297297297297,3.02140647963949,3.08088268116602,2.54799382960809
29.9099099099099,2.69067213936008,2.39561408817374,2.84326427088942
30.0900900900901,2.43859667623468,2.21307918580131,2.74782958591718
30.2702702702703,2.61604861398353,2.98429454113613,2.61681353115123
30.4504504504505,2.41463791899595,2.97028767801358,2.70658365412318
30.6306306306306,2.30679113469922,2.70359113675816,2.22945943816633
30.8108108108108,2.82980026656057,2.52909903152299,2.52636017287824
30.990990990991,3.03335837890683,3.18013002812656,2.7273618413251
31.1711711711712,2.89218213488877,3.15336033080793,3.25153019713204
31.3513513513514,2.23835460010055,2.74965270213575,2.73366101011474
31.5315315315315,2.46290510218972,2.8573693177642,2.93103965940802
31.7117117117117,2.49246418568849,2.80122715231038,2.64612033106702
31.8918918918919,2.83171814830715,3.17027236958605,2.84676682028183
32.0720720720721,2.67027083001241,3.07404376661892,2.73002884043057
32.2522522522523,2.68026804747606,2.76263260926676,2.61097573661752
32.4324324324324,2.68857949082232,2.38459863409895,2.72022899949259
32.6126126126126,2.49288836833228,2.79434620888523,2.55839323014457
32.7927927927928,2.58989482654819,2.5845071129264,2.7352623000682
32.972972972973,2.76667342267666,2.6601496074817,2.63040263705207
33.1531531531532,2.65872640086064,2.68404700219521,2.18054509105352
33.3333333333333,2.9024474285155,2.77837271364588,2.77646940127269
33.5135135135135,3.04874229755914,2.49298271344239,3.08819925237405
33.6936936936937,3.08710859610095,2.63262896818285,3.2572010137598
33.8738738738739,3.01918817821468,3.34213899807002,2.85377716260889
34.0540540540541,2.30477256320365,3.19852022131456,3.01230889427744
34.2342342342342,3.22571074137219,3.01820430767744,2.35884052033006
34.4144144144144,2.6019451885581,2.15495072303647,2.87273000383349
34.5945945945946,2.96439737625099,2.4883834401739,2.99665783873275
34.7747747747748,2.47497526164679,2.47472599946735,3.09148009369921
34.954954954955,2.70207288440228,2.58546581831626,3.20742909799269
35.1351351351351,3.09072191998488,2.9297814477836,2.99827491946319
35.3153153153153,2.77304215754158,3.05526213498559,3.40198381138033
35.4954954954955,2.86263839984673,2.98161384138674,2.97176135312733
35.6756756756757,2.67391555861338,2.86316725259664,3.3487955622895
35.8558558558559,2.8844016150681,2.67010064184403,2.7862870062285
36.036036036036,2.63053417918648,2.74006925427855,2.96671950479914
36.2162162162162,3.34297480593056,2.3185968723675,3.20457142030737
36.3963963963964,2.72329502878151,3.07856956716304,3.03731041251056
36.5765765765766,3.21042789812636,3.06764768355573,2.52641247441082
36.7567567567568,2.86988950108965,3.24375985420613,3.41325281458254
36.9369369369369,3.37521397315541,2.66130324419012,3.49883530591707
37.1171171171171,2.69788276050812,2.63171811755592,3.36705781145427
37.2972972972973,3.21567096396121,2.96220102075786,4.02898742662615
37.4774774774775,2.65198723190125,2.40755107166965,5.50076266004563
37.6576576576577,3.13140215991067,3.02125422294696,10.2766951087794
37.8378378378378,3.83063650785611,3.01746010238066,16.2876622766096
38.018018018018,4.73054629508355,2.82069895046798,20.9999284652951
38.1981981981982,7.65131128802031,2.89122230413076,11.3988558151251
38.3783783783784,16.2896916050471,2.61359901776132,6.85493155315298
38.5585585585586,18.3329004959282,2.69975286131877,3.79673405586321
38.7387387387387,17.8683706988796,3.34694867557812,3.94753649254571
38.9189189189189,9.68972795435448,2.79654200401948,3.28918942459634
39.0990990990991,4.66538808668298,3.18474127503896,3.47955367367756
39.2792792792793,3.34035360488801,2.90071404860975,2.75714029591155
39.4594594594595,3.88880027519918,2.87995151370118,2.7603407642978
39.6396396396396,3.12589784380402,3.18839683092509,3.11315300909295
39.8198198198198,2.94180583780892,2.34266246758521,3.27493195033172
40,3.21335626866704,2.48207970359182,3.02961512150803
40.1801801801802,2.75426496795414,3.13746577151248,3.40539724344694
40.3603603603604,2.63713061184093,2.83329589076557,3.46443262297645
40.5405405405405,2.75854974489628,3.22681966664483,3.61680558820442
40.7207207207207,3.34404577497106,2.91729324878833,3.20610152496154
40.9009009009009,2.4688505326727,2.82061710424107,3.47737297601872
41.0810810810811,2.54245233994199,3.12534037246587,2.6360158927317
41.2612612612613,2.78798442891646,2.85379816652741,2.73348636463844
41.4414414414414,2.42066207234082,3.3153066175531,3.43729351675832
41.6216216216216,3.33283786046301,3.53209700865211,2.9185545180614
41.8018018018018,2.81278355569892,2.90975740379708,3.01380503607758
41.981981981982,3.1522454466339,2.99997035454064,3.26079782237543
42.1621621621622,3.18730108649438,2.62108615952912,2.55507634675748
42.3423423423423,3.355841725067,2.81063662545338,2.80830428603241
42.5225225225225,2.4302496480059,3.19197500448255,3.06687630547611
42.7027027027027,2.88949413783183,2.51142492764299,3.21934314682755
42.8828828828829,2.90661481454726,3.27805948829506,2.75035389181256
43.0630630630631,2.84750857156359,4.50498230495785,3.51435598315695
43.2432432432432,3.00872431855337,6.60050132510023,2.81744491525399
43.4234234234234,3.46727794625897,12.0338562714238,2.60098167798791
43.6036036036036,3.27674655810542,18.6651091443009,3.00798895377274
43.7837837837838,2.97100279042701,11.063292790231,3.33127612308515
43.963963963964,2.38598072575579,5.81181873442432,3.64066441615721
44.1441441441441,3.126641878007,4.84071565779529,3.47857221154768
44.3243243243243,3.15865702569819,3.70564556709954,3.22406729439349
44.5045045045045,3.13252958389577,3.30594440406899,2.64274541094893
44.6846846846847,3.02409220449529,2.86064344643635,3.17076509491522
44.8648648648649,2.3763492536832,3.30367098799265,2.7227067346653
45.0450450450451,3.00342125801671,3.37957374402968,3.21623559259691
45.2252252252252,2.8124822679972,2.95484721846941,3.45973390315355
45.4054054054054,3.21698428855782,3.14741516988243,3.39153374420522
45.5855855855856,3.09620724917957,3.25728235962054,3.41896061690047
45.7657657657658,3.61517014964433,3.15032520461348,3.3905738859379
45.945945945946,2.86572416825542,2.83737530666218,3.34917878236884
46.1261261261261,2.90021688595256,2.44562985557739,2.88534652877519
46.3063063063063,2.98169792312323,2.641870167608,3.8677166240728
46.4864864864865,2.80792644127527,2.91459034681144,4.70138621754057
46.6666666666667,3.07752942347174,3.44820319703662,9.6509893550898
46.8468468468469,2.81984901703314,3.23597898544962,15.789283178127
47.027027027027,3.25924352082468,3.16497879387116,12.2351499455841
47.2072072072072,2.99060721451171,2.87780385377389,8.97505248406708
47.3873873873874,2.97899028827764,3.80687461595935,6.05626617474844
47.5675675675676,3.16727604309248,3.12609697341534,3.55073239776615
47.7477477477478,2.67056984024545,2.50038320324951,3.66052990069824
47.9279279279279,3.16457579382691,2.84240213864649,3.02160702835089
48.1081081081081,2.61264500427919,3.33675725210408,3.05995200135998
48.2882882882883,2.99511749704616,2.88312193998378,3.37509621662097
48.4684684684685,3.00772637055682,3.02926567309073,3.64369940933541
48.6486486486487,2.8678005489366,3.18525059635978,3.29086396608077
48.8288288288288,3.18230100411873,3.15147077364172,3.28538708628836
49.009009009009,2.87449457637507,3.30755365630947,3.59183777549972
49.1891891891892,3.58459270839852,3.14473129224642,2.92544195746435
49.3693693693694,2.79134155323076,3.25869252943736,2.9262596775533
49.5495495495496,3.5741453213156,3.55856621047469,3.23836548018124
49.7297297297297,2.96852601499049,3.6055363622985,3.03255406719216
49.9099099099099,3.12454434843252,2.84305903595194,3.27702574133522
50.0900900900901,2.97966715707326,4.29805271598418,3.13246246157199
50.2702702702703,3.35020786683932,4.80508872723168,2.99297948645022
50.4504504504505,3.33896003635651,6.57761228793631,3.26149850153852
50.6306306306306,3.2009320141318,8.26258705788708,3.14936063069155
50.8108108108108,2.7712019740132,11.5194654098233,2.44153616412102
50.990990990991,3.34716612290453,10.0637030247146,4.23214333138368
51.1711711711712,2.68548277181854,6.39400303108255,3.1040356796244
51.3513513513514,3.41140780371008,5.82469430253253,2.89315114565496
51.5315315315315,2.65011043001828,3.42568648897954,2.82243827325021
51.7117117117117,3.24755216017965,3.12675094990324,3.05241999051018
51.8918918918919,3.12310738051729,2.94747885959161,2.6992546051733
52.0720720720721,3.06663732840003,3.01160838271975,2.46492700169084
52.2522522522523,3.21073128336189,3.54994822739223,2.79139283981993
52.4324324324324,3.02247794744618,3.19253106896409,2.89922498479923
52.6126126126126,2.778616829417,2.83163942188576,3.31117819214879
52.7927927927928,3.75887598847156,3.77367287821911,3.00072590406722
52.972972972973,2.83600186058732,3.47510924830786,3.16150263976166
53.1531531531532,3.30354471113734,2.52488918280249,3.20041678994741
53.3333333333333,2.84776507435588,3.65793365937234,2.64247062053997
53.5135135135135,2.99165472005683,2.80809074928844,3.31960609344917
53.6936936936937,2.83488211692366,3.02652349946492,3.48213942608953
53.8738738738739,3.05346192684442,3.00815493524674,3.13504533202988
54.0540540540541,3.65218448963299,2.9383948750874,3.68247449215571
54.2342342342342,3.00298643119253,2.99299681491249,4.33260695540865
54.4144144144144,3.33255725030441,3.34662841142341,6.47947718600154
54.5945945945946,3.11061659981766,2.56130541097102,8.0797943868796
54.7747747747748,3.48993659103221,3.25641980132667,9.8932638137169
54.954954954955,3.41630470143111,3.37502115962673,8.32928825851005
55.1351351351351,4.87327728814083,3.12344195640576,6.11623962979454
55.3153153153153,5.68566528960722,3.73287105633735,4.44300799805797
55.4954954954955,9.17029230166608,3.46350377175299,3.83223166093337
55.6756756756757,9.62739289926811,2.70627267007833,4.08567041058851
55.8558558558559,8.84349974606642,3.32201619885958,3.09470875447247
56.036036036036,6.10345497979443,3.07007308247567,2.92264579642672
56.2162162162162,4.87130920474269,2.83971610462885,2.57682788337184
56.3963963963964,4.09828620468107,3.09067394459936,2.98155363097577
56.5765765765766,3.88402615850921,3.35769309831216,3.3849799110415
56.7567567567568,3.46815438631758,2.95669893733867,3.5556166695392
56.9369369369369,3.48884915741352,2.93672875872952,2.63235738213985
57.1171171171171,3.21055312055253,3.51562826439422,3.87350405370755
57.2972972972973,3.58023561601079,3.63476760674503,3.60557981225791
57.4774774774775,3.74412448199563,3.09405210137823,3.22295152083342
57.6576576576577,3.04321993776649,3.61765688166286,3.4708708035012
57.8378378378378,2.65597652910093,3.053735374013,3.4854830155395
58.018018018018,3.20988560399327,3.29999070865524,3.94595513896195
58.1981981981982,3.0335441744721,3.24410510610031,3.05296107750822
58.3783783783784,3.29862683765107,3.38593354894738,3.27458481120462
58.5585585585586,3.30983673907316,3.08204164055944,3.15168219894892
58.7387387387387,3.28926164014245,3.90446969789629,3.36899217326047
58.9189189189189,3.60884396181347,2.5955422512773,3.45503609263895
59.0990990990991,3.46230720085502,3.49815387989255,3.70414504677739
59.2792792792793,3.42320693837845,2.97373198537196,3.97626925414875
59.4594594594595,3.98609350242623,2.8995117804674,2.96519290640809
59.6396396396397,3.08335185396226,3.28971187138214,2.99868764620705
59.8198198198198,3.55428052490547,3.50385431580909,3.71135532902963
60,2.95625788022391,3.31114176120101,4.03453176375273
60.1801801801802,3.03435755182586,3.0256534334844,2.86866644078865
60.3603603603604,3.10094034162253,3.08423682506558,3.38589712925278
60.5405405405406,3.59863962008725,2.29953556608922,3.9445705697399
60.7207207207207,3.16418161682492,3.85977377342281,4.13473091223314
60.9009009009009,3.16077023079088,3.59090190851169,4.02023955266304
61.0810810810811,3.457383664359,3.40883622030101,5.2185759539611
61.2612612612613,3.09060772559626,3.35225363035261,6.32546086264212
61.4414414414415,3.55222419193563,2.79032964870215,9.80722952191805
61.6216216216216,3.14908808990667,3.76049974933807,21.9723309276935
61.8018018018018,2.88561524124168,3.03281565333272,28.6400405922601
61.981981981982,3.68662415458684,3.69484238320601,34.4426006205008
62.1621621621622,3.54914704547489,3.06961155946051,22.9388884770798
62.3423423423424,2.72182099202421,3.19852409154006,11.470638915071
62.5225225225225,3.00464113392275,2.92957311709929,8.0686421085073
62.7027027027027,3.29990214287046,3.55980981453818,5.39105149028509
62.8828828828829,3.43651029741349,3.33868525329024,3.83338686042445
63.0630630630631,3.11044672321256,3.23014415442659,4.63984781064735
63.2432432432433,3.50446791113591,2.75285974454849,4.35806516787983
63.4234234234234,3.00088146872866,2.37321710650969,3.78039668197879
63.6036036036036,3.63195008985234,2.83877135706453,3.51699499750829
63.7837837837838,2.9683885399615,3.1602303772742,3.84213679760963
63.963963963964,3.57658836575798,3.26017141510176,3.64339802158036
64.1441441441442,3.16392617326977,3.00450298601074,3.71373917980021
64.3243243243243,3.76346852514119,3.19043228763401,3.50587556673469
64.5045045045045,4.02946792543291,2.65404950150663,3.74777126128257
64.6846846846847,3.7975072537169,3.07674953537594,3.44201719906514
64.8648648648649,3.46945636576924,3.29478725034299,3.18301841582721
65.045045045045,3.26183950474188,4.34475265570518,3.02812689029151
65.2252252252252,3.13098334032996,3.10879144442124,4.04051766596549
65.4054054054054,3.76179409851533,3.29347520966002,3.73674472136213
65.5855855855856,3.69249988939586,3.40069239220377,3.81621041693858
65.7657657657658,3.70037934362125,3.67809203793509,4.01160962468766
65.945945945946,3.27623262942539,3.03848855443577,3.73351809717889
66.1261261261261,2.97404672406738,3.1857507066494,3.57390892178105
66.3063063063063,2.5948418432748,3.22567933977927,3.48840324103248
66.4864864864865,4.55529957394819,3.39898003338614,3.05608475340532
66.6666666666667,3.29863380094979,2.90361129765677,3.71783070600868
66.8468468468468,3.92488592641876,3.17840830321705,3.78915361448816
67.027027027027,3.58120061597562,3.01596226891476,3.70704186003206
67.2072072072072,3.16630067194729,2.86598602265937,3.71154519251495
67.3873873873874,3.61924471625845,2.940298561262,4.18448430144449
67.5675675675676,2.98285913677422,3.24641273823479,4.48820536420404
67.7477477477478,3.37451960391145,3.57552618177857,5.33422758495632
67.9279279279279,3.46827485211347,2.97258604312315,7.11615961557419
68.1081081081081,3.57893117190687,3.62222148856488,13.6112690911463
68.2882882882883,3.19990383684149,3.59554487104099,18.616196347181
68.4684684684685,3.83889960801434,3.56542560847796,26.6469062827415
68.6486486486487,3.97085450449366,3.63045459325294,30.2276495610546
68.8288288288288,4.87721432325539,3.27854125006317,23.7204296984265
69.009009009009,5.75167638002853,3.441631676937,12.3952586520085
69.1891891891892,8.84295247740999,3.336919135619,7.88080443073389
69.3693693693694,12.0558150762211,3.41019422832904,5.64071557401276
69.5495495495496,21.4505699976258,3.35950328117819,4.55935303521537
69.7297297297297,29.0738804377948,2.90981413415845,4.41833744671365
69.9099099099099,25.0982641112677,3.08431194386345,4.19557408155458
70.0900900900901,19.4525000051662,3.00246058636586,3.87995518224629
70.2702702702703,9.35474865969877,3.23478878050983,3.28168537710501
70.4504504504505,6.98185880580192,3.29938720886036,3.83900809267053
70.6306306306306,4.37390065435293,3.30869719647664,3.91733724757547
70.8108108108108,4.86194915769191,4.12786997011927,3.75348867851138
70.990990990991,3.98505472004323,3.5766932629235,3.42554907263154
71.1711711711712,4.08013183402699,2.84124258017548,3.35913716567074
71.3513513513514,4.28413238500864,3.36842612216682,3.4046710432214
71.5315315315315,3.63677332630339,3.42603693657683,4.02224439606618
71.7117117117117,3.77359933097308,4.05995468263165,3.46089767081651
71.8918918918919,4.21215409768842,3.66607579934144,3.39179362207194
72.0720720720721,3.39636380523761,3.89773036105237,3.35734507230719
72.2522522522523,3.39130086402473,4.0729144649169,3.09814952829544
72.4324324324324,3.58286248842506,3.85761762306419,2.51956489669022
72.6126126126126,3.32638877952608,3.6576165861053,3.43276992102938
72.7927927927928,3.53835234647752,3.34945384863899,3.21406822902533
72.972972972973,3.68263504504342,3.45308099081626,3.86361230542498
73.1531531531532,3.05914866612774,3.4566609197815,3.81904243037235
73.3333333333333,3.63773309471538,3.45696733714527,3.6840699731745
73.5135135135135,3.02388253298689,3.54036262008125,3.63260876030428
73.6936936936937,3.62387915812595,4.33127629473483,3.25417340344676
73.8738738738739,4.04268697281824,4.13569193036316,3.31073072539475
74.0540540540541,3.72231799073955,5.15049495845277,3.71556823559765
74.2342342342342,2.92858890796643,8.37056523628968,3.55617312645922
74.4144144144144,2.84071103450042,11.4652420686279,3.67755008752071
74.5945945945946,3.42100278507493,16.6756263067304,3.29733899077768
74.7747747747748,3.46659394935802,17.9068463858664,3.33588193345878
74.954954954955,3.45048317771205,11.8373041294826,4.15044028383939
75.1351351351351,3.18265242504211,8.45743744811543,3.10471997081306
75.3153153153153,3.26608467386472,6.52851521197761,3.81507330511746
75.4954954954955,4.12641173472478,4.61332369037774,3.63197336935997
75.6756756756757,3.36218048131152,3.55884472333099,3.21674970636
75.8558558558559,3.2911614560915,3.9562557906134,3.71765389972795
76.036036036036,3.39482865960764,3.23595198512587,3.41661782104192
76.2162162162162,3.62234987369362,4.07620273588955,3.96072057592025
76.3963963963964,3.86126240692803,3.68870996024644,3.2165311922551
76.5765765765766,3.30679359482593,3.86890125805643,3.41636586663696
76.7567567567568,3.75300925107178,3.65809153230095,3.61436104568431
76.936936936937,3.88268648861556,3.4111737033195,3.38057162534073
77.1171171171171,3.74270387635559,4.2261634680186,3.70415298780733
77.2972972972973,3.9764873846389,3.87010444856443,3.17270847993675
77.4774774774775,3.19834117625287,3.417833284316,3.95591958780202
77.6576576576577,4.35129444674708,3.07714560265606,3.33440486361636
77.8378378378378,3.74551019595447,3.88916407850639,3.89603530133832
78.018018018018,3.49758296658653,3.69852607896079,3.94372529574767
78.1981981981982,3.28507999097062,3.4466065435675,3.38816343598203
78.3783783783784,3.48321639593113,3.76960670881633,2.93445213341439
78.5585585585586,3.52878236854912,3.43641719380691,3.84254075967683
78.7387387387388,3.26924601823777,3.56701138935,3.54432663161732
78.9189189189189,3.35672705715655,4.24997059469075,3.93522739421293
79.0990990990991,3.62244993803217,4.1818838667849,3.47121128012523
79.2792792792793,3.8028794186709,3.62142882712353,3.46652220921231
79.4594594594595,3.77979485993146,3.41747488854637,3.28425586668882
79.6396396396396,3.49310210175902,3.03454036156155,4.14678862301907
79.8198198198198,3.82501302583505,3.83131191365462,4.1883526592096
80,3.23434402704603,3.77765111075569,4.53322557859964
80.1801801801802,3.8393941013566,3.91769890154658,3.65721694092922
80.3603603603604,3.69205904372349,2.99069261790262,5.12061431592573
80.5405405405406,3.47210520324817,3.38988012945001,6.44292105619227
80.7207207207207,3.82073907215086,3.39298731305068,8.95064866567098
80.9009009009009,3.32528591377771,2.98626416202367,15.0186255410123
81.0810810810811,4.05641271324331,3.26286945568937,14.6471568693089
81.2612612612613,4.21419855123083,4.1122613293354,14.3488389123408
81.4414414414414,3.63390108570888,3.46081007125768,12.0475568151051
81.6216216216216,3.97370323788742,3.75593675857245,7.76239404842665
81.8018018018018,3.61110595140804,3.03621146715014,6.04080977860365
81.981981981982,5.07262132676167,3.73188140175024,4.69028029198804
82.1621621621622,6.77411737227712,3.94893455979049,3.70554720617568
82.3423423423424,8.75752656969963,3.08137564339021,4.6975192161348
82.5225225225225,17.5374229704275,3.61964570320346,4.49722403352909
82.7027027027027,18.2045549764121,3.78952093259607,3.45510564613506
82.8828828828829,14.6159031598696,3.2933098956559,4.08635979537393
83.0630630630631,8.95925188038012,3.45919268001549,3.76144886747747
83.2432432432432,7.62236789648247,2.97944874072618,3.54054554805011
83.4234234234234,4.47157202068791,3.61269252455572,3.99800472276835
83.6036036036036,4.33290066644298,3.45527566972056,3.27768644739018
83.7837837837838,3.98240543093039,3.54928191747552,4.73771786555102
83.963963963964,4.13187526326152,3.90378276999701,3.49218781520634
84.1441441441442,3.8661772763958,3.70811078811713,4.36721863737372
84.3243243243243,3.32539795436024,3.90231311573972,3.78708662389905
84.5045045045045,4.3260487018534,3.73164841806805,4.18038761513249
84.6846846846847,3.33885545829119,3.7984951247498,4.67331765886655
84.8648648648649,4.36045602215748,4.03700452264983,4.29633136368056
85.045045045045,3.63379506359143,3.67420361246827,4.08270892862639
85.2252252252252,3.3181551459716,3.74375160926279,3.83388433271119
85.4054054054054,4.11708952718721,3.02086486592834,4.48828737387205
85.5855855855856,4.10259951557966,3.42300368334805,4.48154568009622
85.7657657657658,4.01770713615895,4.19176716481809,4.59073849088545
85.945945945946,3.29380119650296,3.60367903367521,5.01782934436818
86.1261261261261,3.77872357443153,3.45380132700464,5.00918068373829
86.3063063063063,4.29820264635922,3.17144968753272,5.74655331753606
86.4864864864865,3.76785061418429,3.06977192868084,6.60973678192867
86.6666666666667,3.73089395533872,3.88687696726674,10.7106476386821
86.8468468468468,4.06784647382388,3.98180659429954,17.8383375924568
87.027027027027,3.79243653033357,4.34419740118082,31.4326793943016
87.2072072072072,3.16342630767697,2.98076265545625,41.6742357568004
87.3873873873874,3.84990385655802,3.95125641670173,33.1148086036637
87.5675675675676,4.05178144504173,3.56128937381669,22.5407482895452
87.7477477477478,3.82161527596789,4.12071644766119,14.7981630019742
87.9279279279279,3.18809305370855,3.09620192105582,8.8378138060009
88.1081081081081,3.9357879865109,3.22357856052194,5.35571357375606
88.2882882882883,4.26973909386242,3.29888700564779,4.7938268229782
88.4684684684685,3.27775007901988,3.73664619333052,5.45186491968895
88.6486486486487,3.75345906892616,4.32357671922192,4.20019891325181
88.8288288288288,3.00231276415041,3.82523539555793,4.87552685084502
89.009009009009,4.29026079114216,4.19474948839302,3.57681084280379
89.1891891891892,2.9403581643428,4.16806158654101,4.60399482621443
89.3693693693694,3.43186049737637,5.17257216534994,4.27619786389851
89.5495495495496,3.9631131074842,4.28763250605696,3.06249098296006
89.7297297297297,3.75528786336087,5.17490514214789,3.72891364008201
89.9099099099099,4.06351711257702,7.02120679602078,4.84435002536258
90.0900900900901,3.92000891832044,9.17964010094199,3.98668292223425
90.2702702702703,3.71307900195384,15.8078520503429,3.11385085930773
90.4504504504505,4.28981729362412,23.1754433178273,3.98505729809187
90.6306306306306,3.81445238270283,26.4887546881489,3.70738883995951
90.8108108108108,3.62215290239961,25.233344260782,4.30350516154584
90.990990990991,3.86917428505484,17.9788399715899,4.64231938648408
91.1711711711712,4.26395573761486,13.0027296657828,3.67957760640792
91.3513513513514,3.61781097056752,7.95600616206201,3.75438671993453
91.5315315315315,3.73086625859662,5.655902544458,3.92477441557415
91.7117117117117,4.23519959146814,5.54087295625552,4.32043203523652
91.8918918918919,3.28022569586937,4.10193079872834,5.04730825035951
92.0720720720721,3.94147224497401,4.26294571101174,4.09521969796803
92.2522522522523,4.27961563520165,4.19687928550794,4.45777369204376
92.4324324324324,3.90420703234827,4.70390893113291,5.7692177620385
92.6126126126126,3.45439721263176,3.93706937131112,7.61722326719093
92.7927927927928,4.13706500534012,4.22632362824998,11.9416710826421
92.972972972973,3.45287521428926,4.3467559036154,17.8955005077859
93.1531531531532,4.58818256977086,3.6007056757303,25.5603584976221
93.3333333333333,3.78575161077832,4.16851770055592,25.3164641345
93.5135135135135,4.15763806596347,3.82171794492442,23.1553455646542
93.6936936936937,4.64726430470991,3.19115176900429,17.7377690264005
93.8738738738739,4.48776110973458,4.53647645080926,10.6256754931715
94.0540540540541,4.51960606397237,3.63193163808739,7.3321382429548
94.2342342342342,4.90592326251568,4.51352995608826,4.7648871384376
94.4144144144144,4.60821891632165,4.01974901703917,5.63703069137639
94.5945945945946,8.24034826165156,3.77000625710835,4.67371476754721
94.7747747747748,13.4667382966154,3.91365243962399,4.50016659917956
94.954954954955,19.1943089207726,4.03970474501015,3.62885361875077
95.1351351351351,25.2279405656145,4.64476324778888,3.56675938737792
95.3153153153153,28.377066160946,5.72542640823704,4.0792102549811
95.4954954954955,16.7290922205082,6.42872893837707,4.19974516477419
95.6756756756757,13.9114259353268,6.92916367242636,4.53741929381334
95.8558558558559,8.43962802364323,10.1147972404728,4.11764538779401
96.036036036036,7.16713475953727,11.9355075230569,3.90213760412045
96.2162162162162,5.29649258260775,9.65579229789996,3.10515113931295
96.3963963963964,4.13927052614896,7.37843507577146,3.88439202070457
96.5765765765766,4.57407324728926,6.49517673828746,3.76300573868395
96.7567567567568,4.50112409902913,4.57581721969657,4.14595125619773
96.9369369369369,4.11650734919411,4.03011022330954,4.21228477800304
97.1171171171171,5.12994863157737,3.72136932109473,4.08011026932475
97.2972972972973,3.75172120766848,4.68841159831803,5.15102523868979
97.4774774774775,3.50154796559262,4.02653788631543,4.67446135392378
97.6576576576577,3.65413243022313,3.15851459759463,4.21860770818115
97.8378378378378,3.714907232591,3.92714541070983,4.24350284348994
98.018018018018,3.88289768812513,4.26274586050573,4.68813420797406
98.1981981981982,3.50074612215272,4.38353882024809,5.27912505891001
98.3783783783784,3.68790095035914,3.42744158505802,6.01603484512142
98.5585585585586,4.20816824115273,4.06474061546832,6.3718534452383
98.7387387387387,3.99693722659402,4.30141962528317,9.19597595249151
98.9189189189189,3.98540461156455,3.42985316010438,13.862440435656
99.0990990990991,3.88200981329689,3.51528657519166,19.3972122253201
99.2792792792793,3.85248641352089,3.50282743185615,21.7996696467674
99.4594594594595,5.15022820941973,3.81998808241591,26.173036696156
99.6396396396396,4.16793650738317,4.11131360465976,26.3155141724699
99.8198198198198,2.80893625738114,3.73842619843339,13.4782687078017
100,3.56129002482712,3.2645356989507,11.2307792530709
100.18018018018,4.41526071722345,3.8454083983254,7.48593536394869
100.36036036036,4.11391473399186,4.23216300271701,5.47008161480153
100.540540540541,4.29931490400483,3.67456478212023,5.30048167081943
100.720720720721,3.90132584882236,4.77396571665917,4.82712508634242
100.900900900901,4.06117631330826,3.90031088292039,4.40684407737057
101.081081081081,4.57416204269352,3.57364507954237,4.83213911504771
101.261261261261,4.10204241567927,3.63130450595236,4.20118799894224
101.441441441441,3.76260197668353,4.07634439199449,3.94623630662092
101.621621621622,3.65620255095991,3.30049371487661,4.38675271668633
101.801801801802,2.97145310855188,3.70341463493269,4.72007552665944
101.981981981982,3.69522201366849,3.47286783016498,4.16686277957093
102.162162162162,3.63461907608557,3.97461911335108,4.11360110543337
102.342342342342,4.40551611700416,3.79440418053182,4.4193899228406
102.522522522523,4.52418456245182,3.92668694100065,4.52723178354561
102.702702702703,4.02343534517592,3.90910409761515,3.83948584966057
102.882882882883,4.49650380408993,4.04650304528988,4.40275089177174
103.063063063063,4.40852044946194,3.66441318029478,3.70286129606075
103.243243243243,3.60375214910213,3.59534351378786,4.02902521840634
103.423423423423,4.23473303386394,4.497137739449,4.38328624663768
103.603603603604,3.97470838083772,3.86746917546751,4.90342195082311
103.783783783784,4.20607675533202,3.45901706064838,3.53927747441526
103.963963963964,3.60579551230384,3.70926040882502,3.75424850304306
104.144144144144,2.93535897393095,3.92293155452071,3.7332212701247
104.324324324324,4.00186698036182,4.34118969131359,4.04387868195808
104.504504504505,3.61058002530705,3.51676573898594,4.73992793974969
104.684684684685,4.16235441130105,3.46862509129886,5.17909437776774
104.864864864865,3.71855484779166,3.82481300711233,5.56404556710094
105.045045045045,4.01669730422107,3.75370686695309,6.14161845680049
105.225225225225,4.29344302495116,4.10180231949249,5.69832736979317
105.405405405405,3.68288873242416,4.24593402912849,9.00349239156662
105.585585585586,4.20402611686116,4.5178762784956,11.3763024253612
105.765765765766,3.97930872626297,3.72177523389387,11.0764449064368
105.945945945946,4.53838739573358,4.13256448272898,9.64284059749585
106.126126126126,3.82846611299807,3.25484341745049,7.74868058510494
106.306306306306,3.95558734154709,3.79241422950139,5.40650027528015
106.486486486486,3.83596798862479,3.24099943994141,4.48740182103586
106.666666666667,4.15921094487252,3.80839203447649,4.70654599828373
106.846846846847,4.73026520294651,3.43697744242737,5.0227962482967
107.027027027027,5.24423156078794,2.9632747119232,4.86456392975434
107.207207207207,5.16395330101068,3.21924622908788,4.55753046909495
107.387387387387,6.91356748648904,3.52589312264075,3.52277639866021
107.567567567568,8.65418652736803,3.67438465828217,3.97837887163137
107.747747747748,9.83410341482467,3.9412160581088,4.34626003539352
107.927927927928,11.4771851165761,3.65925406075316,4.43964549272508
108.108108108108,10.2071949406428,3.63870821967751,3.76988291232832
108.288288288288,7.33927841646813,3.67096335186614,4.38195999573614
108.468468468468,7.11945813513329,3.84753544658313,4.4045514847593
108.648648648649,6.26242511041068,4.13007541970468,4.41288351613081
108.828828828829,4.89605626557359,4.17396898922779,4.51507963609806
109.009009009009,4.99805332867511,4.04279096614185,3.66837683322202
109.189189189189,4.28362923545749,2.65364792982459,4.51218062971014
109.369369369369,3.67141608413291,4.1476998966073,4.80261005034456
109.54954954955,4.21058767284682,4.29706734518734,4.53161485085746
109.72972972973,3.56336258897143,3.71995069123177,4.04971855521005
109.90990990991,3.76251595829829,4.19233782779926,4.2191726045665
110.09009009009,3.65304473263642,4.07141500993611,3.43121048426003
110.27027027027,4.42705908565462,3.82085731766038,4.56206692761608
110.45045045045,4.23565281270803,3.8977036728512,4.08140296535929
110.630630630631,4.32230046865763,4.06253148356181,4.59383157290719
110.810810810811,3.55513319047755,4.39609004121632,5.44739825849187
110.990990990991,3.92532440517845,4.23007450459539,5.7890034013721
111.171171171171,3.98344436909107,4.15614447440046,7.50470357157779
111.351351351351,3.39952400358931,3.94127778830826,8.4925449219307
111.531531531532,3.0711941643222,3.66571943041312,13.195684418729
111.711711711712,3.43061594839702,3.43184101537182,17.1159679780926
111.891891891892,4.65518849614557,3.82782057584709,24.1593529522419
112.072072072072,3.89151834407562,3.77596144462788,23.9843962304612
112.252252252252,3.64937310526807,3.69128953129019,21.5050737555203
112.432432432432,4.66322209042498,3.61568737799231,14.1037365229194
112.612612612613,3.54657878149112,3.73390472162687,12.6214791346753
112.792792792793,4.33047807876153,3.53889989031239,7.86812101263894
112.972972972973,3.52866083684116,4.30749849554771,6.52946441887828
113.153153153153,3.97363289430246,4.17442534054797,6.04793531138171
113.333333333333,4.48596698570634,3.90125937192576,5.00869206978727
113.513513513514,4.37500707368232,4.00235568102131,4.94293360185546
113.693693693694,3.06597767276978,4.08685152030908,5.34173708908279
113.873873873874,4.44122839141258,3.8260152438664,4.36186939070281
114.054054054054,3.65682848319656,3.90629584444335,3.73188957354647
114.234234234234,4.17862453395038,3.88696847490113,3.83629543747563
114.414414414414,4.15673408205384,4.17727372297231,4.63893225612992
114.594594594595,4.01861059573598,3.93225731930127,4.60735258633155
114.774774774775,3.42599929052358,3.58901062256416,3.85772937339751
114.954954954955,4.01827155523449,4.73844791343928,4.18843086314241
115.135135135135,4.65019714363122,4.28769092143033,3.53193906890274
115.315315315315,3.89928055968081,3.66364079973563,4.05387972608421
115.495495495495,4.74445094388862,3.38788568795731,3.48108476323702
115.675675675676,4.47966249323022,3.13594947887587,4.30203917601956
115.855855855856,4.01697758731608,3.96187479288757,4.75102021050665
116.036036036036,3.79303056869564,3.55676344292572,4.4932349267017
116.216216216216,3.95745010940783,3.92168090148307,4.00364319572346
116.396396396396,4.21629336313958,3.79892612945073,3.82991997628371
116.576576576577,3.57595649786319,4.28677690164648,4.65477847491037
116.756756756757,4.15172776565056,4.31382778162193,4.36854829611476
116.936936936937,4.43095759696735,4.52611751914651,4.48707777386391
117.117117117117,4.02099030260884,4.24743333830936,6.24505129148901
117.297297297297,4.19005855931709,5.25329608959528,6.05757571007561
117.477477477477,4.44784674451408,6.29241244934707,5.64367762975842
117.657657657658,4.36794819555322,6.03497806181652,8.21486636247554
117.837837837838,4.28514108732886,6.86522544168296,11.2636188621388
118.018018018018,4.29893604856192,6.88092771813305,15.9527482044989
118.198198198198,4.89894368133587,9.40341650905492,25.5892493374837
118.378378378378,4.41515293358265,7.96764411694564,27.0119004496203
118.558558558559,3.47766343442874,6.23812817981093,35.7158357155753
118.738738738739,4.52439932601951,5.80431726605566,36.3620997261032
118.918918918919,4.67002484068238,5.13110922611187,36.8304697425046
119.099099099099,4.26838193777223,4.12955265111518,30.6349890394396
119.279279279279,5.07129770369824,3.71676510747163,23.5855485788536
119.459459459459,5.60036160207515,4.95187401213836,15.8196266550611
119.63963963964,4.86032374387181,4.45856303718524,11.3785464518687
119.81981981982,4.65749236933476,4.65666812926602,7.98377574297386
120,4.21925906496151,3.64780239231719,7.04139919648931
120.18018018018,5.15970761116348,3.59465414626127,4.45923976273266
120.36036036036,5.16762694179701,4.51458805173669,5.13151025680145
120.540540540541,6.02645173368379,4.37052057508162,3.93050351267276
120.720720720721,9.47063415272722,3.76240776331456,4.72066840768922
120.900900900901,10.4907742268465,4.37981362279716,5.13172664712578
121.081081081081,15.8210575478741,3.55781932431714,4.3618545876202
121.261261261261,19.3910050365085,3.88484948441295,4.91259665185994
121.441441441441,33.7375423101879,4.20872767516725,4.61051125859577
121.621621621622,39.5636606239168,4.02623064475618,4.31612726277848
121.801801801802,42.6829212023002,4.51190437284163,4.7585082054231
121.981981981982,38.4703796261446,3.89095546857837,4.55789325940521
122.162162162162,30.3505562672685,3.78911839198363,4.62424360401787
122.342342342342,22.7967200494583,4.4280169514582,3.82076182134091
122.522522522523,15.7764740648337,3.92024324363414,4.01354485999231
122.702702702703,12.3756051310357,4.37757175622142,4.21113004342964
122.882882882883,9.30587914013064,3.46546504455248,4.36637589337486
123.063063063063,7.89753267949915,3.74872204184296,4.1229260269635
123.243243243243,6.4447200202179,4.0902761941089,3.8483644218565
123.423423423423,4.84747283829749,3.66047982676882,4.44050188706563
123.603603603604,5.37389154713055,3.98773268781058,4.00798803888456
123.783783783784,5.74488156221475,4.19454143749933,3.43557646035289
123.963963963964,4.20086457573688,4.2838866805105,4.21575036524238
124.144144144144,5.39899045918832,3.84765526363453,3.61434358999274
124.324324324324,4.55869399967477,3.7101742899555,4.3149449502743
124.504504504505,3.99554328331488,3.45868705438128,4.23747844005611
124.684684684685,4.66933669698803,4.22635022867222,4.44155590417549
124.864864864865,4.49253801955803,4.12228820217645,3.88633396075899
125.045045045045,4.09948786641471,4.41476003219066,3.69617019067618
125.225225225225,3.9252334429468,3.76245916918801,3.76593141406646
125.405405405405,4.48898094162957,3.86368233576021,3.58774854344378
125.585585585586,4.71288590872355,3.3871164257765,4.80983385490997
125.765765765766,3.68701187638367,3.87358304120225,3.88555875960689
125.945945945946,3.90722839132876,4.39805215057013,4.08489722443889
126.126126126126,4.24478860291206,4.72369164497056,4.15841397046634
126.306306306306,4.50763332769281,3.62598339483603,4.33939881369851
126.486486486487,4.08541494578624,4.2727968145932,4.02748128518904
126.666666666667,4.396216835376,4.07088228935414,3.90072919237078
126.846846846847,3.78122106117446,3.61847010274165,3.20370291949813
127.027027027027,3.90980269370399,4.15627214791252,4.46863570141915
127.207207207207,4.67820414879344,4.20837829031541,4.26233161101509
127.387387387387,3.76780618338069,4.09492762503496,4.3757467415267
127.567567567568,4.09389317753259,4.39040369959745,3.51124149842125
127.747747747748,3.81756546156116,4.63787277730512,4.61946142491922
127.927927927928,3.55852192708767,4.14326704594543,4.11843083943762
128.108108108108,4.50308144166262,4.14337599914118,4.89214867812558
128.288288288288,4.13039949342139,3.14173092270119,3.73877167410489
128.468468468468,4.36856380745551,3.67897666730867,3.96550376097576
128.648648648649,3.78116828059513,3.68329293488558,3.94690252571653
128.828828828829,4.03975603722406,3.04734063516473,4.20941255433522
129.009009009009,3.94064251998135,4.52060533988833,4.56958528468454
129.189189189189,4.40748777049391,3.62582888005173,4.31682918545335
129.369369369369,3.83796813108387,3.37086863143643,3.98857193839932
129.54954954955,4.07996037265596,3.98471449777213,3.36006234429128
129.72972972973,3.8304591777386,4.20993375406206,4.30309954794301
129.90990990991,3.99986035397986,4.51235783211343,4.10993929984807
130.09009009009,4.25769781125805,4.600062823856,3.86947755335572
130.27027027027,3.62302700343457,3.61208434858486,4.21730842958544
130.45045045045,3.32195557698704,4.35616621575317,3.95843376926136
130.630630630631,4.45796049679392,3.35412170564297,4.16271297486665
130.810810810811,3.88653251814366,4.10016736417212,4.49783305620101
130.990990990991,3.91791010866572,4.69198954314325,4.1541764835018
131.171171171171,3.93911507012933,3.99303660435863,3.96687168930493
131.351351351351,3.54067665385943,4.52194317154576,2.97008123991215
131.531531531532,3.87463836485707,3.74954855503962,3.74799482825385
131.711711711712,3.99474218192329,3.48481823883007,4.41161004969833
131.891891891892,3.50426812340618,3.8120517408701,4.63865163859862
132.072072072072,3.43474385408246,4.00997502233317,4.84486547579571
132.252252252252,4.73533889801199,4.24732980401642,4.59217215606238
132.432432432432,3.56871438556485,3.99165957579164,4.4615850163119
132.612612612613,4.28646312074568,3.93721883991469,4.77283772760692
132.792792792793,4.21739478015289,3.66829039692783,4.76156555414582
132.972972972973,3.79538876389878,3.81726868897973,5.62961967933147
133.153153153153,4.25036069291819,4.41753948206674,5.78020778531105
133.333333333333,4.80010247471239,3.65007283776509,6.16622933722932
133.513513513514,3.78174850760365,4.73225172741238,8.65636093790286
133.693693693694,4.53801150835429,4.72546724357249,7.64031545124618
133.873873873874,3.67908167181213,3.96376611296909,7.60976147859663
134.054054054054,3.8174151686419,3.46221574094953,7.69291251339077
134.234234234234,3.64542406185696,4.38680066948986,6.1449494493062
134.414414414414,4.77687951867209,4.77736717611777,7.1314537186806
134.594594594595,3.57986718133357,3.44460004962893,5.85875492242853
134.774774774775,3.90264849004521,4.2661639624599,4.60792683832552
134.954954954955,4.00516716083986,4.21039545704629,5.18649757040303
135.135135135135,4.24465733474952,4.29133224235395,4.13031870456959
135.315315315315,3.75353441839924,4.39066159147036,4.25723057222954
135.495495495496,4.20714521508525,4.42708322066942,4.36513333746143
135.675675675676,3.70106311859041,4.75585169961055,4.34042935770784
135.855855855856,3.32498202874002,4.88910689318503,4.00187762599436
136.036036036036,4.81581938226039,4.3883645142348,3.64923464801219
136.216216216216,4.09748304707126,3.80481803087283,3.76936925201315
136.396396396396,4.65758862339936,4.45850401521095,4.27086682453117
136.576576576577,4.53010253830005,4.21178481140024,4.28113721815716
136.756756756757,5.05133308935975,5.10063679660374,4.12024217146519
136.936936936937,4.21078165131776,5.20342813949544,4.11641408505766
137.117117117117,5.14080156578759,6.12526424437932,4.31347372890433
137.297297297297,5.11075403537591,7.46972817427278,4.12511556572077
137.477477477477,5.77651852078619,8.15620055237791,4.1173183532864
137.657657657658,5.65580282561611,10.9948588174773,4.07551589046219
137.837837837838,7.40057360467213,11.1859330951859,4.61055526801828
138.018018018018,6.173126051068,14.9854902741793,4.3351456298651
138.198198198198,7.20121887266409,14.8796016536397,4.13655868331721
138.378378378378,6.57457415543651,15.6930321385637,4.55334736689835
138.558558558559,7.79951254997668,16.4441940367759,5.84109936048232
138.738738738739,5.47137499105849,15.02916984583,4.17343875159643
138.918918918919,5.85617660075757,12.0962302275996,4.17964305241844
139.099099099099,5.42898647856757,9.27146110394379,4.21547035694237
139.279279279279,5.00962410121346,9.34719842817311,4.64757489276728
139.459459459459,4.44130733596704,8.71758725593761,4.35257476254787
139.63963963964,4.25773729375424,5.70323318057331,4.87874260203783
139.81981981982,4.01488574638237,6.90139457148737,4.45059429583962
140,4.11231290076524,4.97982313076001,4.64815124417456
140.18018018018,5.08311345306707,5.50605865942325,5.00574456139323
140.36036036036,5.09421445518135,5.16551478569982,4.71365771556948
140.540540540541,4.67684351481601,4.26963685174167,4.47548316923736
140.720720720721,4.82144537597184,4.27158157330376,5.40320440198827
140.900900900901,4.22427404028696,4.51551087476776,5.26837381669781
141.081081081081,4.25672259017512,3.71489944537717,6.29266582177401
141.261261261261,4.05258947296047,4.71476467378611,6.63334099604025
141.441441441441,3.68490645613028,4.33648851285449,7.60397988229274
141.621621621622,4.52432181647411,4.60099911119581,8.43718919814058
141.801801801802,4.54207995399545,4.70509761111322,9.55379331296893
141.981981981982,4.30638633208798,3.74931148343296,12.2540364083244
142.162162162162,3.09172861040562,4.61325695209681,15.3794648118328
142.342342342342,4.5932224616764,5.2631363389932,23.6753525390214
142.522522522523,4.86409760327992,3.98504353057414,22.2706128880709
142.702702702703,4.39549006048755,4.7332076868583,28.3165179362745
142.882882882883,4.35295347976035,4.68248361410821,25.3750444158134
143.063063063063,4.09421932009432,4.32560196076272,28.4357709311395
143.243243243243,3.83698726040688,4.8546602637779,26.7020819820125
143.423423423423,3.98449908446215,4.61297470606735,23.8682411902492
143.603603603604,4.02109943895077,4.83894459066007,17.4309976103195
143.783783783784,3.88892757246719,4.65050091520252,13.2660608384548
143.963963963964,4.0744080361739,4.71417631895803,12.9191937429353
144.144144144144,3.95092272292988,4.5174210662086,10.4781996223473
144.324324324324,3.47020189570806,5.06138103163681,7.38450683838549
144.504504504505,4.33998332103456,4.09967312822621,6.23710830280382
144.684684684685,3.82970389620129,4.05912282723138,6.63824546640492
144.864864864865,3.39943212519589,5.78417256156756,6.68478383512287
145.045045045045,3.60548632076619,4.92575506810344,5.10190941124071
145.225225225225,4.36442833722022,5.13667221388682,6.07709019490638
145.405405405405,4.76886642414294,6.0381771279663,4.92197919791372
145.585585585586,4.64226792978342,5.68227688662457,5.68131917224377
145.765765765766,4.82817898108136,6.36990865731705,5.16589813362514
145.945945945946,3.47795203653892,6.44537725045554,4.93656128695287
146.126126126126,4.24486149993031,8.01106138509702,4.38238525705711
146.306306306306,3.65283100919412,10.9623238411012,4.42994047848734
146.486486486486,4.01610795499344,11.5611278460249,4.68577272982644
146.666666666667,4.57574371115747,12.089932581302,4.93064998153175
146.846846846847,4.15122204832621,13.9361181334966,4.65950956017241
147.027027027027,4.71555127235448,17.8893753617962,4.61629830459114
147.207207207207,4.75442898426787,14.6013563397463,4.47279325281476
147.387387387387,4.61114603614721,15.792390189943,4.42901664976919
147.567567567568,4.0083980061945,12.1592486796628,4.6776038162267
147.747747747748,4.07260769000546,11.5829436807738,4.2278090511847
147.927927927928,4.8825889521608,13.0182043411098,4.41025392081023
148.108108108108,4.20452913203631,9.88839387961038,4.58603657085296
148.288288288288,3.96243564647642,7.83757644124789,4.80438157950637
148.468468468468,3.81778895437251,7.51521529411426,3.94276254675486
148.648648648649,3.69904075659006,6.60011750582238,3.70519490611513
148.828828828829,3.59995424632884,5.12632672959497,3.88887188199005
149.009009009009,4.21228324310421,6.19181372670471,5.02976285575604
149.189189189189,3.18063100065829,4.12419777027977,4.28119825385409
149.369369369369,3.77259905667113,5.456522705838,4.45261822101251
149.54954954955,4.40527315680265,4.23354717960184,4.31606842905508
149.72972972973,3.78842612664033,5.06286916931673,5.26954255970805
149.90990990991,5.13085302208627,4.3837901227542,4.42447603091971
150.09009009009,4.22061053458471,4.91379654477561,4.2815625985551
150.27027027027,4.62652140082284,4.92713275094524,4.71009766680388
150.45045045045,4.45600429141714,4.05983048119507,4.30735709473772
150.630630630631,3.95867258205203,4.6329213056389,3.59731295076046
150.810810810811,4.13267538060541,4.13255343638861,4.69846208930188
150.990990990991,3.74118487532506,4.34536480702539,3.99978376829804
151.171171171171,3.66346259126892,5.04225796677607,4.37977609173741
151.351351351351,4.26856177110784,4.58382009133871,4.65801039584804
151.531531531532,3.93292448328978,3.24092604021881,4.71824540161366
151.711711711712,3.98586640899629,3.88507585452588,4.65413490279707
151.891891891892,4.13431710618514,4.47525763977193,4.63094342803943
152.072072072072,4.43214854690074,4.15064371283244,5.33273895979672
152.252252252252,4.19026126078743,4.73742240383275,5.0756829975984
152.432432432432,4.35935939604309,3.82123546953855,5.49900276826708
152.612612612613,3.70327403912443,3.54517231289847,4.90932368676299
152.792792792793,3.99516531828823,4.16002770813285,7.29564569233555
152.972972972973,3.66390515174476,4.63225992321196,6.86620739775922
153.153153153153,3.90509626904772,4.76415434706447,6.55350302543708
153.333333333333,4.34288600499377,4.87633538519639,8.88907442427035
153.513513513514,4.82573714388072,4.3307509450955,10.3027807550848
153.693693693694,3.08747177964341,4.25557300591182,11.2535371825212
153.873873873874,4.40727696260092,4.26951729005616,11.3413356288631
154.054054054054,4.84407073950623,4.05699698087901,15.4498663455654
154.234234234234,3.83533912400073,5.42776103334508,15.1789782903636
154.414414414414,4.62140212851709,3.78118195755046,14.8575991024861
154.594594594595,4.47712126540247,4.00036083382951,19.1911358781758
154.774774774775,4.87736932835377,3.9576615891689,15.2573838361095
154.954954954955,4.55123201992342,4.50123151401166,13.0848318706132
155.135135135135,4.09090344315706,4.00374569232638,11.906600846758
155.315315315315,4.2855942763482,4.2171618999145,13.1506114538485
155.495495495495,4.04307295639774,5.07385483110795,14.1135351853504
155.675675675676,4.05667235104999,4.29667091998591,10.6033193520773
155.855855855856,3.5333201680804,3.89530954294453,9.1175331140472
156.036036036036,3.46881335549335,4.72484575331299,10.0184707237645
156.216216216216,3.87678462498147,4.08845891222593,7.6170146393365
156.396396396396,4.22720041092069,4.56692647183201,6.32824288242041
156.576576576577,4.0895979144694,4.31396915540323,6.56519660893601
156.756756756757,4.09728967755614,4.13315562267705,6.32660482888704
156.936936936937,4.87942309218721,3.849985340111,6.69921569222853
157.117117117117,3.75968548999227,4.32625415101551,5.96967617272487
157.297297297297,4.21194725290712,3.6459073528973,4.90904312015643
157.477477477478,4.05826231989521,4.94190324758548,6.0558016515016
157.657657657658,4.49149595048113,4.29695152932215,5.08429316273423
157.837837837838,4.1831980716026,4.17964461969515,4.84270037140293
158.018018018018,4.35611491467687,4.06476603500369,4.3688938858406
158.198198198198,4.22302864167677,3.95321334923849,3.58833271415204
158.378378378378,5.09207334842753,4.27850579623524,4.67970793963614
158.558558558559,4.54870592102126,3.82094768123023,5.25926844461387
158.738738738739,4.45937622035279,4.51664438518659,5.15892274209223
158.918918918919,4.4107713509687,4.29480671524651,4.21581722973039
159.099099099099,4.19158367117689,4.42448695267976,3.8938722896076
159.279279279279,3.91190549184364,3.99769914888037,4.81760042499186
159.459459459459,4.77514651126258,4.16334247610531,4.43084238948061
159.63963963964,4.96814625370183,3.64564849089551,3.28329909423269
159.81981981982,5.19820896791217,4.35661736824287,4.91474711130097
160,4.1052849298697,4.27548673991683,4.9743147067128
160.18018018018,4.45114040775398,4.19713635143863,4.24340859764452
160.36036036036,5.17302577817608,3.89339982881108,3.46303759252403
160.540540540541,4.87451753600086,3.79524792723957,4.53314260506258
160.720720720721,4.74967458719581,4.04309683448128,4.68745067878654
160.900900900901,4.50866381391838,4.35426924421091,4.3133818105137
161.081081081081,4.56026206787391,3.76196490041089,4.88512634795869
161.261261261261,4.63957169454422,4.23556195713636,3.12215270060735
161.441441441441,4.89385421186409,4.61282874441227,4.31376813520691
161.621621621622,5.64249705538791,4.10668415872539,4.7985190401694
161.801801801802,5.70600147438667,3.85282325835797,4.2201585770734
161.981981981982,7.55364249818893,3.31753595762365,4.28531305853112
162.162162162162,5.89216963087848,3.93060438245258,3.89410714304677
162.342342342342,6.58661761451808,4.09182604607835,4.50830119800282
162.522522522523,7.886839326048,3.99315215272486,4.84684346496361
162.702702702703,8.3682339349801,3.9779722765982,5.22684812400388
162.882882882883,8.90211279829658,4.44149876747942,4.62866889921677
163.063063063063,8.77759873276338,3.85041182587207,4.99118987104114
163.243243243243,8.76109145052119,3.82044509319883,4.84810420931264
163.423423423423,10.7681454091245,4.15155187815862,4.68853559859801
163.603603603604,11.2137742077705,3.7807693780003,3.71742693690645
163.783783783784,11.4783330849742,4.5653888784422,4.70778538220889
163.963963963964,10.996115855125,3.60010942275442,4.40166093001524
164.144144144144,12.6628485211187,3.71681976420005,4.42489786516554
164.324324324324,12.1078065986967,3.98350637043745,3.97370374931171
164.504504504505,13.6643837782023,4.5028283216623,3.71457279688807
164.684684684685,13.2590573591475,3.92755106171717,4.16303637883677
164.864864864865,12.1618805945303,4.55644828096069,3.90618103585938
165.045045045045,12.2884932951963,4.18109786972834,3.89603641655906
165.225225225225,11.734339632328,3.68471640356883,4.54850889538309
165.405405405405,9.40358931588498,5.05370440165938,3.49123094364152
165.585585585586,9.28960911791627,4.28650055478099,4.36085233499829
165.765765765766,10.7229556987629,4.39921552178912,4.52175477152427
165.945945945946,8.36111893317444,4.49877923670352,4.05354748869555
166.126126126126,8.79513864015626,4.27404703311478,4.60056306164057
166.306306306306,8.29083103837613,4.26424635712584,3.44625260914915
166.486486486486,7.56091721939618,4.43995421764845,3.58589033399871
166.666666666667,6.49163014214331,3.76584741214907,4.12071668232921
166.846846846847,6.29016660112244,3.87371973677846,5.09714370493335
167.027027027027,6.53324698990684,4.51378203487843,4.42441330383318
167.207207207207,6.22149699514276,3.8960644149771,4.52627977632695
167.387387387387,6.0807046238851,3.56837518130928,3.93900504924602
167.567567567568,5.94253989593807,3.8398630466029,4.26224086964266
167.747747747748,5.88067542839957,4.32366544544983,3.56028857272122
167.927927927928,4.8630070532689,3.70679204211954,4.54165946020831
168.108108108108,5.33109463261914,4.2336835983694,4.58395053943832
168.288288288288,5.57048510578779,4.09539730346206,3.77647920678261
168.468468468468,5.40702302983535,4.49463933485109,4.58908032520055
168.648648648649,5.59044648424505,4.08481976211617,3.72959267727514
168.828828828829,4.01170582519497,3.86817361529017,3.72174029838084
169.009009009009,5.22615681718677,4.31205780826541,3.72637498831172
169.189189189189,5.34644078424686,4.41445671367216,4.21680217342591
169.369369369369,5.6190282436319,4.65743033081329,3.7607527643175
169.54954954955,4.48251102539375,4.68985712445402,3.92952192037987
169.72972972973,5.44795476713371,4.40168778884896,4.62582943335591
169.90990990991,5.03307751132643,3.89351626965597,4.2110660602454
170.09009009009,4.85536928985056,4.26869320408228,4.26120574167802
170.27027027027,4.18486618843292,4.36150452959904,4.43429940498531
170.45045045045,4.88910896309768,3.66136928750902,4.20352467282161
170.630630630631,5.27016308991262,3.14628065269054,4.92583209618495
170.810810810811,3.47052650775927,4.02346935666542,4.2290993818286
170.990990990991,4.13393265255932,4.51470609760593,4.63835859993132
171.171171171171,4.79793928787602,3.50537429989561,4.20154648724433
171.351351351351,4.99854723585966,4.13517494992669,4.28575686127447
171.531531531532,4.1156917364384,5.03010768407866,4.09820477239404
171.711711711712,4.5165978124386,3.89773693115998,4.665094114667
171.891891891892,3.53657568518059,4.49915696556326,4.37825206884152
172.072072072072,5.39341268344887,3.86207214680017,4.75369538348385
172.252252252252,3.79226229191511,3.98634026402988,4.77893581344903
172.432432432432,5.18932819946747,3.90489262554813,4.26823483031172
172.612612612613,4.88913248025846,3.71519217018218,4.06187642132994
172.792792792793,4.59840313855384,3.91006853080226,3.31653200653279
172.972972972973,4.75208564074671,3.69574686631081,3.7032711153972
173.153153153153,4.86544263826253,4.9791737991136,4.2521095524275
173.333333333333,4.52870536068227,4.19121604120898,4.77253000472615
173.513513513514,4.95657251640494,3.68345905820508,4.11579009628624
173.693693693694,4.71747104121825,4.66568220188405,4.06119133157311
173.873873873874,4.30382528973864,4.90858898506823,4.39957030067866
174.054054054054,4.22072766415131,4.65302596431181,4.63027614567212
174.234234234234,4.01981598574387,4.04567610106672,4.43277195680185
174.414414414414,4.40225946436714,4.5252763941417,4.58973698260861
174.594594594595,4.23518978943287,4.2720680701008,4.75931611406003
174.774774774775,5.09766827669248,4.313809514,4.01833074903037
174.954954954955,4.63297817046129,3.67580050311194,4.33040643584373
175.135135135135,5.23547831414918,4.50045747198101,4.05355652902419
175.315315315315,4.03788056498611,4.73558482645485,3.65838822493402
175.495495495496,3.69235443593102,4.510690043495,4.65250354561771
175.675675675676,4.12170444196592,4.07135555288612,3.62632118890497
175.855855855856,4.20761624234687,4.43694455044968,4.83580156516803
176.036036036036,4.41591834696918,4.72649662125784,4.24718664384522
176.216216216216,3.66336308926011,4.19768270615824,4.47575506912273
176.396396396396,5.02207477627852,4.36673488442101,3.54206382128066
176.576576576577,4.27476200477834,4.33009399974851,4.56245612168442
176.756756756757,4.69183608102361,4.028412169055,4.54121293286642
176.936936936937,4.80496341827774,4.48954184969656,3.56539496707745
177.117117117117,5.1563606016548,3.8149780284024,3.71724574089134
177.297297297297,3.94785579848967,4.15344999281699,5.2057855474806
177.477477477477,4.61358153994316,4.35410150129234,3.60033243376633
177.657657657658,4.4370388548217,4.93237110149028,4.06621011337563
177.837837837838,4.47112433026238,4.56350247727586,4.61565134142011
178.018018018018,5.12460320714586,4.13681456883176,4.64582772920729
178.198198198198,5.96674508501115,4.3829009780098,3.94397433108284
178.378378378378,5.02563628107249,3.91185492777638,4.698167551908
178.558558558559,4.33543494823831,4.88543122937744,4.10427306957187
178.738738738739,4.20797444290342,3.79268664709726,4.50697765002012
178.918918918919,4.0282084639435,4.55043208143331,4.81868319242622
179.099099099099,3.97281171771745,4.31020522466563,5.32569912520525
179.279279279279,5.16882802438529,4.36012829918225,5.13187289943287
179.459459459459,5.04163130096236,4.05564955484895,4.97235183777967
179.63963963964,4.42425405962705,4.31326907820379,5.72119291731355
179.81981981982,4.44608983545155,4.66252411458486,4.94889197493773
180,4.28291909665503,4.70410742228816,5.31184578540971
